3037481 3037394 3037286
3037452 3037390 3037293
3037499 3037375 3037262
3037488 3037383 3037412
3037491 3037399 3037298
3037489 3037407 3037439
3037497 3037388 3037305
3037456 3037322 3037264
3037441 3037378 3037327
3037491 3037350 3037278
3037499 3037358 3037261
3037512 3037394 3037363
3037483 3037402 3037167
3037489 3037403 3037388
3037493 3037359 3037227
3037446 3037386 3037346
3037493 3037399 3037267
3037420 3037359 3037308
3037421 3037415 3037259
3037501 3037377 3037255
3037489 3037376 3037260
3037501 3037379 3037349
3037442 3037396 3037355
3037487 3037377 3037346
3037457 3037395 3037414
3037503 3037401 3037271
3037487 3037393 3037273
3037638 3037644 3037587
3037763 3037851 3037526
3037839 3037890 3037616
3037809 3037836 3037440
3037614 3037639 3037440
3037467 3037384 3037330
3037476 3037348 3037293
3037489 3037356 3037279
3037494 3037382 3037248
3037484 3037357 3037375
3037465 3037395 3037298
3037417 3037221 3037393
3037397 3036804 3037262
3039259 3039764 3038118
3040060 3040985 3037797
3038121 3037821 3035878
3037300 3036634 3035878
3037523 3037399 3037320
3037482 3037380 3037282
3037469 3037394 3037441
3037494 3037356 3037343
3037535 3037398 3037323
3037555 3037436 3037499
3037564 3037525 3037394
3037618 3037536 3037586
3037639 3037597 3037347
3037725 3037680 3037499
3037703 3037741 3037484
3037855 3037881 3037412
3037900 3037979 3037642
3038028 3038192 3037562
3038199 3038382 3037686
3038125 3038358 3037707
3038114 3038271 3037467
3037886 3037983 3037413
3037559 3037563 3037464
3037496 3037353 3037196
3037499 3037352 3037429
3037450 3037400 3037290
3037530 3037357 3037263
3037444 3037383 3037458
3037441 3037376 3037277
3037496 3037395 3037357
3037485 3037379 3037352
3037408 3037406 3037224
3037461 3037404 3037403
3037450 3037355 3037288
3037413 3037379 3037456
3037467 3037391 3037345
3037449 3037357 3037346
3037440 3037398 3037381
3037480 3037404 3037313
3037411 3037439 3037406
3037476 3037344 3037244
3037499 3037392 3037326
3037525 3037405 3037355
3037453 3037392 3037427
3037476 3037396 3037209
3037492 3037382 3037501
3037508 3037377 3037310
3037524 3037406 3037356
3037507 3037376 3037389
3037477 3037373 3037234
3037488 3037347 3037431
3037474 3037399 3037257
3037492 3037388 3037290
3037457 3037354 3037240
3037463 3037406 3037355
3037487 3037400 3037219
3037440 3037391 3037225
3037420 3037359 3037405
3037695 3037636 3037329
3037824 3037829 3037565
3037813 3037944 3037530
3037773 3037794 3037692
3037690 3037645 3037501
3037432 3037385 3037387
3037524 3037355 3037371
3037496 3037399 3037405
3037498 3037401 3037280
3037408 3037352 3037381
3037502 3037410 3037454
3037365 3037062 3037313
3037660 3037265 3037625
3039531 3040166 3038026
3040019 3040772 3037855
3038014 3037661 3035636
3037306 3036709 3036159
3037461 3037397 3037376
3037442 3037405 3037283
3037409 3037389 3037468
3037521 3037352 3037338
3037487 3037437 3037368
3037510 3037376 3037422
3037567 3037464 3037247
3037568 3037561 3037447
3037576 3037660 3037498
3037684 3037694 3037308
3037749 3037762 3037513
3037821 3037867 3037457
3037958 3038013 3037401
3038071 3038213 3037677
3038227 3038427 3037603
3038062 3038305 3037586
3038075 3038219 3037594
3037821 3037913 3037359
3037548 3037518 3037452
3037474 3037394 3037393
3037472 3037380 3037423
3037487 3037345 3037369
3037484 3037371 3037331
3037478 3037402 3037352
3037466 3037361 3037342
3037449 3037394 3037345
3037482 3037400 3037281
3037499 3037347 3037442
3037495 3037406 3037250
3037504 3037346 3037369
3037526 3037354 3037216
3037503 3037394 3037371
3037496 3037383 3037305
3037478 3037380 3037386
3037523 3037403 3037335
3037485 3037403 3037309
3037441 3037389 3037346
3037465 3037404 3037364
3037498 3037380 3037421
3037463 3037392 3037182
3037482 3037392 3037326
3037482 3037435 3037296
3037445 3037407 3037285
3037502 3037402 3037266
3037448 3037396 3037332
3037478 3037361 3037375
3037526 3037353 3038146
3037458 3037351 3037440
3037524 3037364 3037310
3037421 3037429 3037381
3037488 3037349 3037197
3037489 3037396 3037405
3037444 3037430 3037308
3037512 3037493 3037412
3037738 3037780 3037561
3037817 3037921 3037598
3037882 3037927 3037684
3037748 3037819 3037385
3037586 3037487 3037479
3037501 3037404 3037321
3037410 3037391 3037302
3037474 3037402 3037399
3037448 3037386 3037367
3037441 3037378 3037321
3037450 3037354 3037259
3037193 3036640 3037385
3038262 3038127 3037758
3039941 3040776 3038385
3039572 3040093 3037229
3037568 3036953 3035144
3037434 3037164 3037080
3037492 3037349 3037278
3037444 3037345 3037459
3037444 3037399 3037267
3037477 3037439 3037394
3037506 3037424 3037442
3037522 3037421 3037436
3037556 3037476 3037446
3037620 3037548 3037388
3037633 3037621 3037527
3037718 3037682 3037379
3037749 3037803 3037599
3037828 3037888 3037521
3037934 3038053 3037537
3038128 3038289 3037589
3038202 3038402 3037661
3038116 3038334 3037698
3038109 3038210 3037504
3037756 3037766 3037377
3037510 3037481 3037482
3037473 3037393 3037437
3037440 3037396 3037224
3037502 3037376 3037368
3037486 3037398 3037356
3037477 3037360 3037258
3037500 3037392 3037346
3037450 3037394 3037403
3037523 3037401 3037341
3037450 3037387 3037348
3037492 3037346 3037364
3037447 3037397 3037384
3037475 3037350 3037344
3037496 3037403 3037364
3037521 3037353 3037222
3037459 3037345 3037567
3037466 3037380 3037237
3037446 3037350 3037471
3037490 3037401 3037378
3037535 3037364 3037351
3037442 3037406 3037443
3037460 3037377 3037369
3037503 3037396 3037165
3037459 3037397 3037306
3037502 3037397 3037324
3037529 3037345 3037188
3037532 3037352 3037342
3037529 3037359 3037201
3037494 3037402 3037335
3037502 3037379 3037225
3037507 3037359 3037223
3037486 3037378 3037248
3037457 3037381 3037204
3037450 3037357 3037423
3037476 3037391 3037195
3037556 3037498 3037427
3037748 3037767 3037553
3037884 3037899 3037565
3037876 3037943 3037538
3037755 3037784 3037551
3037575 3037566 3037444
3037492 3037354 3037392
3037485 3037361 3037395
3037444 3037414 3037282
3037474 3037356 3037476
3037475 3037344 3037335
3037491 3037395 3037492
3037176 3036657 3037448
3038389 3038273 3037572
3040193 3041239 3038326
3039268 3039642 3036969
3037374 3036470 3034957
3037380 3037274 3037174
3037486 3037379 3037312
3037448 3037388 3037198
3037503 3037361 3037413
3037534 3037401 3037332
3037520 3037436 3037374
3037532 3037416 3037406
3037556 3037483 3037323
3037586 3037538 3037441
3037642 3037639 3037287
3037688 3037666 3037583
3037756 3037826 3037660
3037845 3037948 3037461
3037946 3038135 3037418
3038089 3038334 3037749
3038169 3038430 3037577
3038137 3038288 3037638
3038008 3038190 3037663
3037721 3037638 3037375
3037518 3037410 3037440
3037442 3037403 3037248
3037533 3037358 3037406
3037493 3037352 3037231
3037495 3037390 3037353
3037517 3037394 3037425
3037521 3037371 3037256
3037495 3037403 3037348
3037455 3037369 3037236
3037488 3037358 3037322
3037489 3037378 3037232
3037498 3037399 3037377
3037535 3037366 3037272
3037435 3037399 3037421
3037496 3037430 3037278
3037464 3037400 3037413
3037526 3037359 3037237
3037475 3037346 3037258
3037477 3037400 3037365
3037422 3037406 3037306
3037494 3037358 3037412
3037503 3037346 3037296
3037444 3037355 3037383
3037482 3037383 3037253
3037473 3037320 3037388
3037461 3037406 3037279
3037474 3037355 3037284
3037454 3037398 3037256
3037479 3037378 3037295
3037462 3037398 3037388
3037486 3037392 3037344
3037472 3037402 3037386
3037478 3037394 3037396
3037493 3037402 3037379
3037422 3037379 3037252
3037591 3037540 3037453
3037784 3037811 3037453
3037844 3037904 3037663
3037795 3037904 3037536
3037782 3037767 3037429
3037540 3037443 3037347
3037474 3037395 3037390
3037447 3037387 3037431
3037420 3037405 3037410
3037524 3037391 3037272
3037453 3037399 3037424
3037484 3037384 3037200
3037166 3036523 3037433
3038493 3038491 3037707
3040330 3041395 3038178
3039137 3039472 3036928
3037204 3036313 3034755
3037496 3037327 3037316
3037500 3037356 3037312
3037526 3037394 3037253
3037480 3037354 3037256
3037523 3037395 3037342
3037531 3037384 3037384
3037512 3037463 3037457
3037547 3037511 3037289
3037617 3037589 3037470
3037609 3037685 3037426
3037755 3037707 3037446
3037770 3037838 3037524
3037891 3037939 3037590
3038029 3038197 3037645
3038112 3038423 3037593
3038188 3038337 3037850
3038098 3038302 3037589
3037903 3037932 3037610
3037539 3037590 3037382
3037459 3037351 3037318
3037490 3037394 3037526
3037502 3037406 3037330
3037471 3037407 3037387
3037526 3037323 3037377
3037452 3037394 3037308
3037523 3037393 3037293
3037501 3037395 3037327
3037499 3037381 3037353
3037524 3037350 3037332
3037489 3037346 3037344
3037476 3037396 3037279
3037491 3037348 3037464
3037484 3037378 3037231
3037444 3037372 3037410
3037468 3037386 3037370
3037497 3037345 3037318
3037476 3037354 3037403
3037466 3037395 3037258
3037462 3037382 3037369
3037443 3037404 3037277
3037476 3037374 3037418
3037522 3037359 3037380
3037480 3037396 3037362
3037488 3037361 3037326
3037495 3037367 3037367
3037505 3037395 3037394
3037457 3037362 3037334
3037476 3037399 3037474
3037523 3037347 3037278
3037502 3037395 3037466
3037479 3037349 3037322
3037475 3037358 3037266
3037453 3037389 3037453
3037455 3037380 3037269
3037657 3037601 3037539
3037766 3037874 3037580
3037830 3037892 3037648
3037847 3037886 3037753
3037691 3037714 3037376
3037493 3037387 3037391
3037499 3037392 3037349
3037449 3037345 3037252
3037524 3037434 3037345
3037509 3037352 3037376
3037560 3037362 3037147
3037501 3037257 3037312
3037315 3036723 3037421
3039216 3039594 3037960
3040264 3041427 3038194
3038562 3038186 3036067
3037170 3036376 3035352
3037497 3037383 3037387
3037485 3037397 3037323
3037476 3037382 3037345
3037478 3037430 3037383
3037503 3037391 3037419
3037532 3037437 3037282
3037565 3037440 3037517
3037595 3037513 3037359
3037604 3037589 3037526
3037691 3037636 3037425
3037705 3037744 3037439
3037769 3037830 3037536
3037861 3037970 3037535
3038075 3038205 3037536
3038207 3038397 3037545
3038207 3038336 3037622
3038092 3038240 3037622
3037890 3038003 3037453
3037622 3037593 3037303
3037465 3037349 3037399
3037524 3037395 3037155
3037459 3037379 3037325
3037415 3037397 3037264
3037490 3037375 3037272
3037440 3037352 3037349
3037500 3037381 3037105
3037494 3037369 3037429
3037503 3037383 3037216
3037490 3037381 3037196
3037523 3037354 3037270
3037496 3037359 3037286
3037496 3037353 3037297
3037482 3037396 3037203
3037455 3037400 3037239
3037449 3037387 3037363
3037478 3037406 3037374
3037483 3037346 3037287
3037478 3037379 3037361
3037489 3037354 3037397
3037473 3037377 3037354
3037476 3037407 3037298
3037493 3037395 3037349
3037477 3037430 3037309
3037486 3037372 3037360
3037484 3037345 3037294
3037489 3037392 3037342
3037479 3037346 3037462
3037452 3037398 3037222
3037453 3037407 3037459
3037465 3037347 3037295
3037522 3037352 3037369
3037482 3037400 3037334
3037533 3037333 3037219
3037489 3037399 3037396
3037710 3037671 3037504
3037811 3037872 3037440
3037849 3037905 3037618
3037817 3037875 3037600
3037646 3037652 3037374
3037497 3037356 3037524
3037450 3037395 3037157
3037520 3037344 3037336
3037494 3037397 3037343
3037497 3037345 3037405
3037476 3037397 3037393
3037339 3037235 3037257
3037467 3036882 3037521
3039324 3039795 3037984
3040161 3041162 3038044
3038258 3038023 3035890
3037213 3036553 3035767
3037492 3037398 3037265
3037456 3037398 3037230
3037444 3037346 3037391
3037496 3037380 3037396
3037475 3037376 3037354
3037504 3037410 3037273
3037575 3037450 3037528
3037585 3037517 3037316
3037633 3037617 3037466
3037676 3037688 3037439
3037754 3037742 3037421
3037804 3037907 3037471
3037832 3038001 3037598
3038024 3038220 3037624
3038193 3038427 3037637
3038175 3038363 3037755
3038096 3038271 3037553
3037825 3037982 3037527
3037482 3037400 3037348
3037494 3037393 3037244
3037488 3037392 3037371
3037500 3037370 3037306
3037473 3037401 3037323
3037492 3037403 3037301
3037501 3037345 3037352
3037469 3037380 3037282
3037498 3037395 3037299
3037501 3037347 3037342
3037443 3037396 3037338
3037469 3037368 3037327
3037476 3037401 3037286
3037465 3037397 3037317
3037466 3037371 3037288
3037441 3037359 3037232
3037443 3037359 3037338
3037525 3037359 3037305
3037413 3037390 3037356
3037510 3037406 3037278
3037448 3037399 3037296
3037501 3037382 3037439
3037442 3037345 3037144
3037479 3037381 3037410
3037487 3037389 3037284
3037485 3037405 3037345
3037491 3037370 3037282
3037442 3037403 3037291
3037468 3037406 3037358
3037483 3037326 3037243
3037455 3037394 3037270
3037475 3037397 3037288
3037495 3037398 3037305
3037484 3037399 3037397
3037531 3037378 3037339
3037542 3037463 3037382
3037734 3037762 3037551
3037824 3037897 3037672
3037887 3037934 3037601
3037697 3037736 3037561
3037578 3037515 3037584
3037447 3037411 3037394
3037495 3037382 3037499
3037530 3037406 3037248
3037529 3037402 3037455
3037488 3037388 3037326
3037499 3037371 3037341
3037233 3036754 3037503
3038124 3037997 3037630
3040030 3040945 3038341
3039434 3039956 3037221
3037481 3036803 3035190
3037390 3037091 3036848
3037503 3037345 3037326
3037494 3037387 3037404
3037460 3037382 3037339
3037524 3037357 3037432
3037527 3037419 3037254
3037513 3037469 3037436
3037547 3037503 3037273
3037605 3037504 3037421
3037656 3037604 3037410
3037672 3037692 3037299
3037785 3037797 3037518
3037842 3037911 3037381
3037902 3038035 3037567
3038062 3038325 3037584
3038195 3038382 3037695
3038080 3038279 3037525
3038096 3038212 3037680
3037696 3037701 3037259
3037565 3037417 3037453
3037476 3037372 3037239
3037468 3037399 3037274
3037474 3037356 3037419
3037454 3037399 3037251
3037455 3037402 3037251
3037503 3037357 3037245
3037409 3037406 3037365
3037527 3037372 3037519
3037444 3037388 3037307
3037518 3037404 3037450
3037442 3037393 3037327
3037521 3037358 3037305
3037454 3037401 3037487
3037470 3037400 3037306
3037450 3037396 3037430
3037496 3037346 3037480
3037477 3037369 3037295
3037443 3037354 3037413
3037489 3037392 3037272
3037450 3037398 3037335
3037454 3037355 3037431
3037534 3037397 3037243
3037478 3037398 3037247
3037524 3037357 3037358
3037485 3037356 3037154
3037487 3037358 3037369
3037503 3037374 3037296
3037534 3037353 3037309
3037440 3037346 3037329
3037486 3037359 3037315
3037448 3037377 3037263
3037490 3037370 3037353
3037526 3037399 3037259
3037477 3037357 3037256
3037519 3037432 3037534
3037720 3037777 3037505
3037876 3037902 3037683
3037800 3037915 3037556
3037753 3037764 3037560
3037594 3037475 3037503
3037465 3037402 3037250
3037487 3037393 3037198
3037487 3037354 3037479
3037449 3037392 3037296
3037449 3037371 3037338
3037496 3037350 3037307
3037216 3036670 3037223
3038262 3038169 3037850
3040159 3041115 3038118
3039390 3039753 3037152
3037424 3036613 3035064
3037354 3037221 3036962
3037502 3037372 3037442
3037476 3037387 3037236
3037488 3037359 3037264
3037523 3037378 3037304
3037528 3037377 3037281
3037532 3037471 3037235
3037564 3037528 3037379
3037570 3037560 3037192
3037693 3037615 3037410
3037675 3037678 3037378
3037748 3037816 3037513
3037852 3037940 3037405
3037888 3038084 3037585
3038058 3038307 3037589
3038197 3038405 3037772
3038103 3038320 3037613
3038111 3038235 3037523
3037733 3037699 3037465
3037557 3037467 3037500
3037458 3037427 3037362
3037510 3037359 3037395
3037475 3037405 3037273
3037472 3037351 3037355
3037477 3037379 3037394
3037480 3037388 3037285
3037499 3037406 3037358
3037500 3037359 3037404
3037505 3037380 3037330
3037455 3037367 3037377
3037475 3037379 3037277
3037477 3037373 3037251
3037525 3037402 3037330
3037490 3037347 3037231
3037466 3037346 3037530
3037484 3037439 3037240
3037474 3037349 3037447
3037420 3037373 3037302
3037442 3037393 3037441
3037485 3037355 3037420
3037503 3037405 3037320
3037476 3037403 3037436
3037478 3037401 3037323
3037522 3037352 3037357
3037532 3037381 3037281
3037502 3037357 3037533
3037480 3037352 3037173
3037483 3037346 3037407
3037438 3037396 3037224
3037490 3037349 3037382
3037530 3037396 3037465
3037477 3037394 3037360
3037493 3037392 3037458
3037445 3037395 3037303
3037662 3037550 3037432
3037785 3037847 3037483
3037801 3037898 3037514
3037819 3037919 3037623
3037700 3037699 3037433
3037532 3037391 3037259
3037502 3037379 3037222
3037479 3037381 3037408
3037498 3037402 3037308
3037441 3037397 3037393
3037477 3037356 3037378
3037491 3037348 3037241
3037080 3036338 3037535
3038829 3039102 3037804
3040570 3041848 3038490
3038734 3038787 3036366
3037076 3036196 3035016
3037442 3037368 3037269
3037524 3037350 3037396
3037531 3037396 3037314
3037488 3037406 3037307
3037469 3037379 3037449
3037531 3037422 3037263
3037533 3037471 3037410
3037539 3037523 3037346
3037624 3037546 3037467
3037687 3037687 3037457
3037724 3037723 3037382
3037799 3037793 3037563
3037881 3037975 3037443
3038004 3038134 3037686
3038175 3038365 3037743
3038185 3038375 3037495
3038108 3038275 3037566
3037963 3038061 3037552
3037614 3037612 3037467
3037494 3037344 3037289
3037479 3037406 3037354
3037497 3037406 3037227
3037499 3037401 3037380
3037496 3037378 3037298
3037521 3037397 3037330
3037527 3037382 3037360
3037502 3037375 3037246
3037479 3037402 3037399
3037477 3037369 3037341
3037453 3037398 3037412
3037486 3037404 3037344
3037524 3037387 3037133
3037442 3037373 3037394
3037473 3037353 3037233
3037452 3037367 3037234
3037465 3037401 3037314
3037505 3037406 3037301
3037458 3037352 3037250
3037455 3037369 3037464
3037524 3037394 3037089
3037474 3037439 3037402
3037493 3037399 3037254
3037485 3037354 3037346
3037493 3037393 3037405
3037454 3037403 3037353
3037515 3037359 3037435
3037502 3037400 3037307
3037446 3037400 3037256
3037472 3037380 3037318
3037483 3037345 3037299
3037475 3037395 3037381
3037478 3037386 3037370
3037480 3037371 3037325
3037516 3037400 3037237
3037539 3037561 3037434
3037757 3037829 3037528
3037861 3037918 3037596
3037797 3037864 3037553
3037673 3037705 3037450
3037534 3037421 3037473
3037481 3037353 3037303
3037478 3037352 3037424
3037488 3037399 3037255
3037483 3037402 3037366
3037501 3037357 3037276
3037502 3037407 3037491
3037081 3036346 3037216
3038766 3039032 3037915
3040594 3041802 3038501
3038814 3038857 3036373
3037069 3036165 3035015
3037477 3037358 3037298
3037478 3037376 3037421
3037485 3037401 3037291
3037486 3037382 3037358
3037477 3037377 3037391
3037526 3037435 3037286
3037543 3037498 3037288
3037541 3037528 3037413
3037627 3037569 3037365
3037694 3037637 3037317
3037701 3037749 3037388
3037846 3037870 3037323
3037805 3037942 3037618
3037989 3038159 3037556
3038143 3038389 3037631
3038159 3038390 3037654
3038107 3038279 3037567
3037969 3038053 3037566
3037605 3037629 3037336
3037486 3037353 3037279
3037499 3037383 3037331
3037498 3037344 3037218
3037476 3037407 3037422
3037486 3037383 3037224
3037446 3037399 3037359
3037489 3037398 3037319
3037457 3037355 3037369
3037525 3037376 3037326
3037520 3037396 3037397
3037440 3037354 3037324
3037491 3037378 3037445
3037503 3037399 3037277
3037497 3037369 3037252
3037473 3037357 3037458
3037440 3037404 3037254
3037527 3037377 3037332
3037493 3037397 3037299
3037456 3037376 3037300
3037485 3037407 3037252
3037464 3037346 3037372
3037502 3037346 3037270
3037491 3037405 3037216
3037531 3037357 3037385
3037451 3037351 3037194
3037490 3037345 3037334
3037451 3037377 3037283
3037469 3037394 3037302
3037483 3037407 3037265
3037499 3037345 3037393
3037499 3037358 3037286
3037495 3037406 3037375
3037463 3037401 3037301
3037471 3037405 3037347
3037449 3037353 3037315
3037581 3037580 3037373
3037764 3037799 3037694
3037827 3037895 3037554
3037799 3037910 3037671
3037706 3037751 3037524
3037449 3037389 3037346
3037499 3037361 3037326
3037413 3037387 3037309
3037511 3037372 3037329
3037459 3037400 3037365
3037478 3037398 3037300
3037369 3037082 3037245
3037644 3037231 3037494
3039505 3040129 3037995
3039989 3040777 3037789
3038065 3037632 3035718
3037299 3036742 3036022
3037452 3037402 3037392
3037486 3037360 3037315
3037455 3037377 3037387
3037495 3037357 3037255
3037485 3037405 3037384
3037542 3037425 3037196
3037528 3037487 3037459
3037574 3037514 3037373
3037638 3037578 3037314
3037677 3037633 3037505
3037746 3037779 3037225
3037817 3037909 3037507
3037881 3038014 3037513
3038068 3038191 3037572
3038178 3038414 3037656
3038090 3038309 3037748
3038063 3038244 3037641
3037771 3037875 3037598
3037577 3037527 3037303
3037501 3037345 3037400
3037494 3037403 3037327
3037422 3037390 3037343
3037523 3037356 3037406
3037533 3037361 3037335
3037484 3037356 3037370
3037410 3037433 3037308
3037495 3037397 3037329
3037501 3037403 3037431
3037491 3037372 3037304
3037474 3037347 3037407
3037523 3037357 3037400
3037527 3037353 3037346
3037493 3037388 3037323
3037492 3037349 3037281
3037459 3037405 3037395
3037442 3037383 3037213
3037470 3037406 3037402
3037441 3037357 3037246
3037524 3037345 3037255
3037460 3037407 3037329
3037527 3037398 3037359
3037490 3037400 3037170
3037493 3037398 3037363
3037445 3037401 3037320
3037503 3037404 3037337
3037501 3037407 3037380
3037498 3037396 3037356
3037495 3037358 3037320
3037495 3037402 3037348
3037473 3037395 3037373
3037491 3037399 3037370
3037447 3037354 3037303
3037418 3037389 3037474
3037476 3037378 3037249
3037659 3037638 3037610
3037760 3037826 3037507
3037830 3037941 3037541
3037807 3037827 3037743
3037603 3037659 3037521
3037482 3037345 3037207
3037527 3037354 3037256
3037495 3037384 3037383
3037481 3037373 3037198
3037448 3037349 3037396
3037456 3037429 3037231
3037322 3037107 3037320
3037608 3037181 3037377
3039468 3040066 3038052
3040001 3040926 3037782
3038066 3037720 3035685
3037300 3036731 3036095
3037448 3037399 3037248
3037496 3037383 3037280
3037491 3037395 3037310
3037491 3037355 3037415
3037521 3037406 3037305
3037512 3037435 3037307
3037509 3037452 3037444
3037570 3037558 3037312
3037658 3037582 3037496
3037683 3037680 3037355
3037757 3037764 3037474
3037797 3037859 3037338
3037883 3037994 3037530
3038102 3038256 3037536
3038185 3038428 3037751
3038139 3038356 3037526
3038070 3038214 3037611
3037833 3037862 3037434
3037597 3037557 3037289
3037503 3037354 3037335
3037526 3037391 3037285
3037449 3037405 3037341
3037447 3037345 3037285
3037521 3037373 3037228
3037475 3037355 3037404
3037471 3037394 3037154
3037496 3037401 3037447
3037490 3037392 3037276
3037490 3037353 3037328
3037473 3037350 3037333
3037494 3037355 3037430
3037535 3037397 3037296
3037454 3037402 3037395
3037525 3037381 3037207
3037489 3037389 3037362
3037475 3037393 3037437
3037509 3037362 3037189
3037454 3037390 3037392
3037450 3037378 3037251
3037490 3037373 3037467
3037448 3037376 3037261
3037475 3037356 3037291
3037497 3037396 3037270
3037483 3037393 3037355
3037473 3037401 3037414
3037489 3037358 3037188
3037520 3037374 3037418
3037422 3037352 3037245
3037453 3037344 3037362
3037452 3037352 3037312
3037480 3037389 3037396
3037476 3037390 3037379
3037491 3037356 3037488
3037485 3037379 3037325
3037712 3037727 3037579
3037808 3037904 3037539
3037824 3037947 3037613
3037814 3037831 3037601
3037649 3037582 3037429
3037494 3037353 3037494
3037455 3037405 3037175
3037525 3037404 3037389
3037493 3037358 3037291
3037501 3037400 3037308
3037520 3037387 3037355
3037289 3037027 3037313
3037754 3037342 3037618
3039562 3040235 3038054
3039907 3040686 3037632
3037659 3036994 3035260
3037402 3037005 3036596
3037470 3037397 3037349
3037525 3037359 3037340
3037476 3037393 3037392
3037471 3037359 3037281
3037488 3037428 3037375
3037511 3037409 3037396
3037549 3037503 3037375
3037631 3037553 3037378
3037600 3037622 3037571
3037669 3037664 3037328
3037765 3037813 3037563
3037811 3037880 3037535
3037892 3037986 3037569
3038064 3038295 3037689
3038204 3038415 3037634
3038150 3038354 3037717
3038067 3038219 3037623
3037638 3037635 3037316
3037565 3037439 3037300
3037487 3037344 3037358
3037487 3037362 3037328
3037491 3037393 3037369
3037486 3037377 3037365
3037474 3037395 3037402
3037472 3037402 3037257
3037525 3037404 3037358
3037484 3037351 3037293
3037495 3037407 3037312
3037453 3037382 3037291
3037511 3037370 3037171
3037497 3037347 3037386
3037449 3037399 3037281
3037453 3037400 3037313
3037530 3037375 3037263
3037490 3037380 3037309
3037485 3037401 3037355
3037475 3037360 3037284
3037447 3037383 3037321
3037493 3037349 3037320
3037524 3037354 3037273
3037477 3037344 3037331
3037491 3037399 3037327
3037530 3037352 3037216
3037491 3037348 3037429
3037501 3037351 3037260
3037503 3037394 3037287
3037472 3037403 3037310
3037440 3037396 3037304
3037452 3037401 3037369
3037440 3037392 3037275
3037499 3037393 3037338
3037517 3037403 3037274
3037502 3037347 3037397
3037589 3037529 3037232
3037747 3037782 3037654
3037789 3037935 3037422
3037841 3037908 3037513
3037705 3037761 3037649
3037575 3037480 3037354
3037495 3037344 3037349
3037492 3037361 3037420
3037420 3037344 3037311
3037498 3037403 3037491
3037450 3037345 3037256
3037421 3037383 3037355
3037169 3036647 3037324
3038303 3038234 3037781
3040190 3041179 3038293
3039286 3039742 3037188
3037316 3036593 3034926
3037439 3037216 3037032
3037527 3037346 3037452
3037444 3037356 3037251
3037487 3037404 3037382
3037479 3037346 3037232
3037559 3037427 3037436
3037518 3037450 3037325
3037569 3037448 3037296
3037573 3037536 3037395
3037651 3037607 3037376
3037696 3037692 3037323
3037799 3037853 3037533
3037842 3037948 3037462
3038006 3038111 3037549
3038095 3038356 3037585
3038182 3038394 3037693
3038134 3038274 3037543
3038076 3038203 3037586
3037661 3037693 3037589
3037507 3037438 3037224
3037491 3037344 3037422
3037466 3037350 3037261
3037502 3037392 3037438
3037452 3037405 3037501
3037472 3037345 3037277
3037526 3037402 3037486
3037477 3037400 3037254
3037487 3037355 3037488
3037450 3037404 3037389
3037503 3037352 3037401
3037467 3037398 3037168
3037503 3037399 3037478
3037454 3037401 3037230
3037511 3037353 3037342
3037478 3037357 3037296
3037457 3037348 3037322
3037499 3037378 3037310
3037477 3037323 3037365
3037477 3037390 3037461
3037501 3037347 3037366
3037502 3037398 3037521
3037524 3037354 3037309
3037502 3037429 3037490
3037449 3037428 3037345
3037479 3037399 3037381
3037482 3037399 3037357
3037489 3037399 3037365
3037441 3037397 3037369
3037534 3037416 3037238
3037497 3037352 3037216
3037493 3037401 3037429
3037497 3037345 3037307
3037472 3037354 3037231
3037473 3037378 3037374
3037584 3037521 3037330
3037782 3037766 3037591
3037840 3037897 3037480
3037801 3037899 3037591
3037739 3037731 3037587
3037518 3037435 3037496
3037523 3037380 3037363
3037455 3037394 3037357
3037453 3037378 3037406
3037487 3037406 3037257
3037445 3037358 3037431
3037503 3037356 3037402
3037163 3036605 3037306
3038347 3038369 3037840
3040261 3041295 3038194
3039172 3039531 3036988
3037257 3036406 3034812
3037509 3037369 3037178
3037481 3037357 3037427
3037520 3037393 3037220
3037448 3037359 3037293
3037498 3037387 3037389
3037518 3037413 3037256
3037513 3037444 3037452
3037548 3037524 3037368
3037649 3037591 3037256
3037631 3037662 3037503
3037759 3037700 3037428
3037814 3037821 3037573
3037851 3037902 3037490
3038004 3038110 3037594
3038122 3038309 3037653
3038173 3038396 3037696
3038095 3038299 3037543
3037987 3038200 3037682
3037638 3037657 3037562
3037532 3037387 3037225
3037476 3037397 3037426
3037492 3037404 3037258
3037498 3037383 3037382
3037442 3037386 3037283
3037495 3037382 3037388
3037456 3037399 3037291
3037494 3037377 3037414
3037495 3037405 3037295
3037503 3037372 3037345
3037502 3037407 3037318
3037494 3037350 3037324
3037503 3037403 3037485
3037438 3037345 3037293
3037497 3037400 3037383
3037454 3037393 3037265
3037475 3037406 3037323
3037533 3037385 3037281
3037466 3037382 3037450
3037543 3037344 3037266
3037417 3037396 3037379
3037444 3037386 3037524
3037486 3037401 3037276
3037488 3037349 3037392
3037524 3037386 3037429
3037523 3037377 3037279
3037498 3037404 3037288
3037495 3037377 3037332
3037448 3037396 3037288
3037468 3037396 3037188
3037472 3037353 3037425
3037476 3037394 3037195
3037477 3037351 3037361
3037529 3037396 3037305
3037464 3037346 3037249
3037600 3037628 3037512
3037791 3037880 3037539
3037838 3037901 3037572
3037812 3037829 3037544
3037613 3037609 3037371
3037527 3037358 3037497
3037442 3037398 3037216
3037416 3037430 3037386
3037444 3037358 3037285
3037471 3037403 3037414
3037488 3037345 3037298
3037433 3037117 3037417
3037574 3037060 3037395
3039442 3040027 3038195
3040170 3041196 3037876
3038255 3038018 3035869
3037236 3036559 3035809
3037535 3037405 3037231
3037508 3037369 3037390
3037494 3037379 3037359
3037496 3037351 3037303
3037560 3037434 3037399
3037511 3037411 3037309
3037505 3037455 3037390
3037544 3037516 3037362
3037603 3037596 3037405
3037669 3037632 3037299
3037776 3037756 3037422
3037803 3037835 3037389
3037915 3037988 3037542
3038058 3038236 3037588
3038151 3038429 3037662
3038159 3038317 3037642
3038062 3038219 3037632
3037826 3037919 3037517
3037572 3037587 3037312
3037478 3037369 3037386
3037496 3037406 3037305
3037526 3037400 3037481
3037498 3037382 3037297
3037499 3037392 3037496
3037477 3037405 3037313
3037456 3037392 3037403
3037507 3037378 3037314
3037509 3037372 3037372
3037499 3037395 3037366
3037482 3037398 3037328
3037526 3037370 3037232
3037479 3037393 3037425
3037503 3037399 3037390
3037453 3037371 3037274
3037495 3037357 3037257
3037493 3037346 3037332
3037467 3037381 3037373
3037500 3037392 3037415
3037442 3037406 3037381
3037490 3037379 3037428
3037477 3037395 3037323
3037453 3037395 3037379
3037452 3037380 3037357
3037492 3037383 3037447
3037487 3037378 3037259
3037490 3037361 3037275
3037494 3037396 3037331
3037475 3037405 3037339
3037477 3037402 3037434
3037443 3037376 3037253
3037476 3037388 3037401
3037455 3037384 3037290
3037496 3037403 3037293
3037495 3037377 3037288
3037716 3037700 3037611
3037770 3037854 3037475
3037836 3037932 3037701
3037794 3037886 3037560
3037647 3037649 3037346
3037487 3037351 3037467
3037526 3037349 3037225
3037448 3037376 3037385
3037454 3037390 3037324
3037499 3037373 3037356
3037474 3037397 3037371
3037350 3037171 3037437
3037474 3037054 3037584
3039360 3039953 3038016
3040151 3041010 3038068
3038158 3037874 3035751
3037224 3036659 3035912
3037524 3037393 3037364
3037494 3037385 3037301
3037441 3037399 3037352
3037493 3037401 3037320
3037471 3037412 3037277
3037540 3037427 3037416
3037558 3037478 3037283
3037573 3037512 3037522
3037610 3037579 3037361
3037692 3037646 3037456
3037780 3037737 3037524
3037807 3037833 3037428
3037894 3037992 3037581
3038020 3038222 3037570
3038228 3038379 3037702
3038114 3038349 3037626
3038092 3038266 3037702
3037843 3037901 3037480
3037605 3037558 3037339
3037483 3037371 3037355
3037490 3037397 3037241
3037457 3037357 3037325
3037478 3037370 3037283
3037489 3037396 3037309
3037489 3037373 3037263
3037533 3037395 3037331
3037449 3037357 3037157
3037494 3037394 3037382
3037498 3037395 3037173
3037442 3037358 3037319
3037451 3037396 3037312
3037488 3037354 3035177
3037512 3037380 3037502
3037454 3037392 3037226
3037475 3037402 3037342
3037497 3037354 3037436
3037452 3037401 3037301
3037469 3037382 3037422
3037494 3037395 3037299
3037499 3037405 3037428
3037491 3037403 3037227
3037490 3037348 3037385
3037497 3037403 3037260
3037519 3037407 3037334
3037525 3037391 3037190
3037446 3037427 3037392
3037478 3037403 3037246
3037472 3037404 3037341
3037461 3037388 3037328
3037477 3037381 3037345
3037527 3037397 3037193
3037444 3037393 3037403
3037493 3037377 3037298
3037486 3037397 3037231
3037735 3037701 3037464
3037828 3037907 3037469
3037863 3037947 3037608
3037813 3037810 3037543
3037652 3037574 3037417
3037515 3037347 3037324
3037471 3037395 3037391
3037468 3037378 3037402
3037530 3037363 3037248
3037416 3037402 3037370
3037265 3036794 3037258
3038082 3037938 3037697
3040006 3040856 3038056
3039541 3040013 3037366
3037596 3036873 3035085
3037405 3037108 3036855
3037528 3037401 3037328
3037527 3037405 3037162
3037494 3037397 3037436
3037445 3037424 3037317
3037535 3037462 3037463
3037479 3037463 3037377
3037557 3037484 3037346
3037598 3037555 3037462
3037615 3037621 3037375
3037703 3037693 3037442
3037705 3037817 3037499
3037821 3037906 3037544
3037933 3037996 3037437
3038111 3038252 3037674
3038220 3038415 3037658
3038107 3038278 3037728
3038110 3038216 3037517
3037816 3037796 3037374
3037549 3037503 3037462
3037479 3037397 3037256
3037449 3037382 3037320
3037468 3037379 3037367
3037494 3037387 3037402
3037521 3037390 3037395
3037512 3037370 3037309
3037450 3037426 3037352
3037534 3037375 3037307
3037500 3037391 3037415
3037474 3037353 3037227
3037480 3037358 3037424
3037498 3037356 3037226
3037441 3037381 3037223
3037449 3037357 3037344
3037487 3037380 3037239
3037477 3037405 3037373
3037492 3037398 3037224
3037473 3037401 3037392
3037490 3037409 3037285
3037509 3037396 3037356
3037520 3037402 3037219
3037499 3037358 3037400
3037421 3037404 3037327
3037473 3037358 3037281
3037495 3037396 3037431
3037479 3037403 3037282
3037425 3037377 3037534
3037509 3037346 3037187
3037479 3037401 3037320
3037486 3037380 3037305
3037442 3037383 3037285
3037446 3037394 3037283
3037450 3037356 3037307
3037474 3037386 3037376
3037498 3037401 3037366
3037710 3037669 3037550
3037823 3037949 3037684
3037774 3037938 3037549
3037784 3037767 3037681
3037625 3037545 3037350
3037448 3037394 3037424
3037526 3037386 3037391
3037455 3037393 3037266
3037525 3037349 3037502
3037483 3037392 3037324
3037498 3037394 3037331
3037328 3036874 3037444
3037889 3037596 3037450
3039752 3040539 3038257
3039734 3040422 3037430
3037764 3037274 3035462
3037373 3036948 3036334
3037473 3037347 3037279
3037502 3037397 3037229
3037442 3037350 3037343
3037490 3037428 3037384
3037552 3037421 3037311
3037526 3037465 3037450
3037584 3037480 3037397
3037621 3037513 3037429
3037609 3037627 3037421
3037759 3037687 3037536
3037732 3037768 3037435
3037830 3037871 3037612
3037934 3037994 3037537
3038102 3038241 3037789
3038235 3038402 3037645
3038083 3038281 3037664
3038028 3038290 3037714
3037765 3037809 3037410
3037506 3037453 3037389
3037451 3037358 3037324
3037441 3037390 3037418
3037449 3037356 3037221
3037449 3037429 3037400
3037487 3037392 3037322
3037515 3037399 3037260
3037503 3037399 3037286
3037452 3037402 3037428
3037485 3037378 3037250
3037444 3037396 3037246
3037476 3037377 3037422
3037496 3037352 3037341
3037531 3037394 3037329
3037487 3037349 3037364
3037535 3037352 3037373
3037496 3037355 3037304
3037485 3037358 3037471
3037478 3037407 3037323
3037460 3037372 3037355
3037448 3037425 3037462
3037500 3037376 3037248
3037527 3037370 3037325
3037473 3037401 3037268
3037474 3037376 3037370
3037449 3037378 3037423
3037503 3037382 3037230
3037461 3037390 3037282
3037476 3037381 3037426
3037456 3037388 3037248
3037455 3037388 3037368
3037489 3037357 3037318
3037499 3037407 3037256
3037495 3037388 3037498
3037567 3037370 3037246
3037559 3037461 3037521
3037723 3037779 3037440
3037804 3037884 3037652
3037834 3037889 3037647
3037771 3037761 3037499
3037615 3037558 3037488
3037532 3037394 3037323
3037502 3037396 3037470
3037500 3037383 3037221
3037500 3037359 3037412
3037497 3037395 3037281
3037484 3037394 3037466
3037261 3036841 3037377
3038121 3038040 3037685
3039978 3040931 3038238
3039404 3039951 3037222
3037507 3036784 3035062
3037376 3037149 3036769
3037473 3037406 3037351
3037486 3037374 3037197
3037481 3037358 3037358
3037472 3037415 3037245
3037510 3037423 3037288
3037514 3037464 3037223
3037566 3037477 3037325
3037593 3037543 3037358
3037655 3037608 3037420
3037678 3037713 3037436
3037775 3037809 3037453
3037807 3037829 3037527
3037947 3038026 3037572
3038059 3038267 3037623
3038206 3038411 3037718
3038102 3038327 3037658
3037965 3038070 3037549
3037658 3037571 3037436
3037488 3037397 3037329
3037491 3037359 3037443
3037441 3037403 3037275
3037479 3037401 3037373
3037469 3037382 3037351
3037489 3037383 3037368
3037496 3037386 3037362
3037452 3037405 3037332
3037440 3037385 3037384
3037484 3037358 3037360
3037455 3037353 3037403
3037475 3037354 3037194
3037521 3037353 3037349
3037482 3037359 3037361
3037532 3037373 3037199
3037490 3037399 3037284
3037417 3037353 3037326
3037442 3037357 3037317
3037488 3037382 3037280
3037490 3037405 3037397
3037456 3037389 3037346
3037524 3037352 3037261
3037478 3037397 3037403
3037499 3037394 3037414
3037482 3037356 3037431
3037494 3037344 3037259
3037480 3037355 3037395
3037509 3037393 3037286
3037481 3037358 3037327
3037447 3037396 3037351
3037527 3037405 3037334
3037479 3037379 3037426
3037502 3037394 3037337
3037500 3037359 3037377
3037486 3037383 3037298
3037668 3037710 3037527
3037854 3037910 3037526
3037881 3037916 3037643
3037778 3037794 3037599
3037622 3037539 3037455
3037468 3037388 3037349
3037486 3037358 3037225
3037473 3037382 3037430
3037526 3037351 3037220
3037488 3037406 3037336
3037489 3037397 3037333
3037367 3036941 3037383
3037820 3037457 3037472
3039694 3040360 3038064
3039833 3040597 3037528
3037876 3037389 3035464
3037287 3036893 3036366
3037503 3037393 3037236
3037533 3037379 3037316
3037483 3037371 3037310
3037473 3037428 3037346
3037558 3037431 3037341
3037485 3037459 3037429
3037522 3037497 3037400
3037583 3037562 3037383
3037611 3037626 3037498
3037666 3037680 3037502
3037789 3037788 3037434
3037818 3037858 3037559
3037947 3038012 3037574
3038062 3038210 3037647
3038188 3038382 3037605
3038198 3038315 3037721
3038057 3038258 3037570
3037878 3037881 3037565
3037581 3037480 3037471
3037499 3037396 3037368
3037535 3037359 3037419
3037485 3037398 3037366
3037450 3037346 3037379
3037447 3037405 3037432
3037453 3037396 3037458
3037496 3037402 3037325
3037528 3037359 3037427
3037520 3037405 3037300
3037448 3037345 3037361
3037482 3037344 3037262
3037491 3037382 3037293
3037449 3037383 3037288
3037478 3037402 3037354
3037506 3037356 3037280
3037473 3037383 3037375
3037472 3037355 3037374
3037497 3037397 3037307
3037488 3037401 3037357
3037498 3037345 3037125
3037522 3037380 3037463
3037503 3037396 3037230
3037527 3037350 3037236
3037525 3037357 3037443
3037524 3037402 3037191
3037451 3037345 3037349
3037440 3037376 3037344
3037498 3037398 3037276
3037475 3037346 3037392
3037493 3037382 3037410
3037451 3037395 3037260
3037445 3037387 3037253
3037457 3037406 3037254
3037488 3037388 3037291
3037502 3037403 3037297
3037679 3037720 3037478
3037837 3037878 3037451
3037825 3037945 3037611
3037814 3037802 3037540
3037604 3037620 3037410
3037534 3037407 3037439
3037449 3037377 3037242
3037440 3037357 3037371
3037472 3037401 3037306
3037501 3037400 3037351
3037511 3037377 3037250
3037331 3037000 3037316
3037775 3037407 3037553
3039674 3040265 3038146
3039681 3040364 3037429
3037790 3037243 3035457
3037321 3036987 3036500
3037482 3037376 3037423
3037450 3037400 3037293
3037446 3037356 3037327
3037446 3037431 3037391
3037526 3037426 3037291
3037555 3037414 3037431
3037544 3037476 3037284
3037633 3037560 3037530
3037654 3037610 3037335
3037670 3037671 3037509
3037780 3037813 3037500
3037817 3037905 3037541
3037897 3037984 3037559
3038056 3038256 3037520
3038206 3038463 3037657
3038164 3038308 3037613
3038084 3038266 3037543
3037787 3037763 3037407
3037622 3037488 3037386
3037475 3037370 3037302
3037527 3037402 3037439
3037441 3037425 3037324
3037475 3037392 3037363
3037498 3037388 3037310
3037497 3037353 3037411
3037479 3037420 3037248
3037534 3037359 3037365
3037475 3037431 3037414
3037496 3037380 3037201
3037465 3037383 3037378
3037484 3037406 3037252
3037490 3037379 3037357
3037499 3037407 3037393
3037440 3037386 3037319
3037446 3037400 3037395
3037452 3037357 3037340
3037489 3037390 3037312
3037468 3037379 3037461
3037448 3037404 3037271
3037498 3037395 3037375
3037479 3037385 3037411
3037454 3037404 3037329
3037484 3037359 3037411
3037452 3037399 3037371
3037453 3037428 3037437
3037511 3037402 3037217
3037533 3037382 3037344
3037485 3037437 3037404
3037500 3037401 3037354
3037499 3037395 3037299
3037527 3037394 3037294
3037521 3037395 3037439
3037526 3037404 3037310
3037507 3037389 3037462
3037712 3037744 3037520
3037809 3037904 3037633
3037877 3037927 3037446
3037746 3037708 3037682
3037541 3037417 3037384
3037498 3037355 3037354
3037502 3037392 3037386
3037441 3037406 3037286
3037533 3037394 3037379
3037532 3037354 3037331
3037473 3037371 3037389
3037138 3036512 3037259
3038493 3038508 3037865
3040354 3041440 3038257
3039096 3039395 3036892
3037149 3036284 3034790
3037433 3037395 3037216
3037527 3037404 3037425
3037497 3037405 3037311
3037499 3037389 3037397
3037500 3037386 3037265
3037511 3037438 3037381
3037512 3037442 3037256
3037540 3037524 3037407
3037601 3037542 3037398
3037647 3037608 3037396
3037711 3037748 3037457
3037757 3037802 3037488
3037853 3037892 3037528
3038006 3038096 3037478
3038114 3038286 3037647
3038130 3038368 3037572
3038143 3038284 3037715
3038079 3038228 3037584
3037632 3037643 3037369
3037510 3037439 3037334
3037502 3037390 3037358
3037482 3037393 3037370
3037492 3037405 3037335
3037503 3037350 3037458
3037448 3037399 3037187
3037509 3037428 3037491
3037482 3037381 3037349
3037488 3037385 3037395
3037478 3037400 3037358
3037501 3037376 3037269
3037447 3037404 3037355
3037487 3037357 3037368
3037451 3037379 3037326
3037472 3037383 3037261
3037481 3037396 3037448
3037503 3037389 3037166
3037535 3037394 3037394
3037530 3037374 3037243
3037484 3037369 3037308
3037485 3037395 3037416
3037469 3037356 3037326
3037521 3037358 3037316
3037485 3037405 3037396
3037478 3037375 3037293
3037518 3037378 3037413
3037485 3037356 3037393
3037502 3037401 3037356
3037529 3037381 3037257
3037484 3037405 3037468
3037492 3037352 3037318
3037479 3037398 3037339
3037485 3037369 3037466
3037450 3037365 3037226
3037481 3037406 3037363
3037513 3037481 3037324
3037739 3037761 3037430
3037792 3037921 3037705
3037820 3037926 3037469
3037743 3037786 3037564
3037626 3037503 3037309
3037454 3037405 3037295
3037518 3037345 3037359
3037513 3037396 3037293
3037486 3037388 3037376
3037490 3037392 3037392
3037448 3037401 3037433
3037157 3036698 3037315
3038249 3038206 3037792
3040136 3041147 3038232
3039307 3039721 3037140
3037236 3036346 3034786
3037497 3037373 3037258
3037453 3037430 3037360
3037445 3037355 3037406
3037484 3037397 3037304
3037507 3037407 3037419
3037524 3037410 3037389
3037552 3037449 3037263
3037546 3037487 3037401
3037599 3037537 3037310
3037639 3037649 3037390
3037674 3037674 3037391
3037789 3037821 3037455
3037878 3037915 3037532
3037977 3038111 3037621
3038118 3038325 3037622
3038256 3038417 3037701
3038055 3038274 3037611
3038087 3038261 3037620
3037707 3037750 3037524
3037561 3037468 3037360
3037516 3037383 3037339
3037486 3037430 3037393
3037499 3037434 3037393
3037448 3037404 3037336
3037453 3037387 3037427
3037497 3037388 3037196
3037467 3037431 3037376
3037492 3037393 3037253
3037502 3037404 3037437
3037479 3037406 3037397
3037491 3037376 3037182
3037529 3037359 3037399
3037517 3037352 3037305
3037474 3037387 3037290
3037449 3037400 3037388
3037477 3037394 3037343
3037489 3037353 3037394
3037483 3037358 3037366
3037512 3037402 3037402
3037527 3037397 3037290
3037501 3037357 3037325
3037456 3037358 3037378
3037503 3037346 3037299
3037482 3037380 3037255
3037413 3037431 3037371
3037448 3037382 3037360
3037504 3037394 3037368
3037522 3037406 3037160
3037524 3037347 3037462
3037454 3037395 3037221
3037495 3037350 3037350
3037495 3037352 3037407
3037481 3037369 3037290
3037534 3037392 3037349
3037555 3037482 3037401
3037790 3037736 3037601
3037800 3037924 3037602
3037874 3037860 3037621
3037744 3037765 3037474
3037511 3037448 3037415
3037466 3037402 3037281
3037484 3037398 3037319
3037485 3037353 3037347
3037499 3037395 3037405
3037491 3037382 3037286
3037522 3037352 3037358
3037148 3036497 3037351
3038545 3038651 3037765
3040427 3041518 3038383
3039046 3039266 3036649
3037092 3036160 3034885
3037554 3037374 3037246
3037494 3037404 3037461
3037478 3037379 3037285
3037494 3037385 3037380
3037533 3037387 3037345
3037527 3037419 3037247
3037509 3037490 3037361
3037544 3037485 3037278
3037618 3037557 3037406
3037657 3037634 3037329
3037709 3037748 3037453
3037805 3037849 3037390
3037871 3037981 3037417
3038072 3038236 3037448
3038159 3038383 3037646
3038150 3038359 3037513
3038105 3038292 3037539
3037866 3037995 3037470
3037600 3037553 3037392
3037534 3037354 3037359
3037535 3037394 3037365
3037498 3037402 3037294
3037527 3037404 3037310
3037444 3037399 3037345
3037511 3037401 3037273
3037527 3037396 3037310
3037491 3037356 3037464
3037501 3037398 3037347
3037481 3037402 3037380
3037444 3037399 3037219
3037484 3037401 3037390
3037493 3037404 3037208
3037517 3037380 3037352
3037452 3037355 3037226
3037446 3037400 3037392
3037466 3037407 3037321
3037465 3037390 3037291
3037446 3037414 3037336
3037500 3037393 3037329
3037512 3037394 3037319
3037487 3037407 3037352
3037487 3037397 3037371
3037499 3037404 3037370
3037482 3037359 3037350
3037475 3037404 3037380
3037480 3037353 3037324
3037474 3037385 3037446
3037518 3037352 3037279
3037443 3037351 3037419
3037483 3037392 3037337
3037461 3037390 3037454
3037441 3037348 3037216
3037526 3037396 3037358
3037470 3037397 3037103
3037681 3037623 3037358
3037738 3037841 3037559
3037799 3037890 3037603
3037800 3037915 3037583
3037645 3037677 3037537
3037499 3037354 3037351
3037497 3037351 3037381
3037531 3037359 3037426
3037529 3037357 3037344
3037464 3037400 3037451
3037446 3037370 3037283
3037478 3037370 3037466
3037141 3036413 3037321
3038980 3039278 3037957
3040505 3041757 3038292
3038616 3038591 3036365
3037121 3036297 3035208
3037452 3037388 3037284
3037498 3037352 3037296
3037475 3037380 3037264
3037475 3037382 3037440
3037480 3037434 3037378
3037555 3037409 3037329
3037596 3037451 3037400
3037541 3037518 3037262
3037581 3037546 3037429
3037679 3037639 3037512
3037746 3037750 3037378
3037813 3037848 3037532
3037879 3037928 3037440
3038035 3038202 3037645
3038205 3038399 3037693
3038152 3038354 3037618
3038172 3038290 3037551
3037978 3038059 3037596
3037612 3037573 3037453
3037523 3037378 3037357
3037489 3037391 3037335
3037449 3037401 3037291
3037492 3037358 3037437
3037453 3037352 3037327
3037478 3037392 3037358
3037497 3037376 3037361
3037558 3037399 3037364
3037525 3037406 3037343
3037502 3037384 3037503
3037496 3037353 3037298
3037499 3037376 3037327
3037480 3037405 3037383
3037473 3037364 3037196
3037478 3037394 3037260
3037477 3037344 3037293
3037454 3037352 3037316
3037528 3037353 3037278
3037444 3037376 3037339
3037497 3037356 3037278
3037453 3037357 3037399
3037520 3037401 3037332
3037492 3037381 3037328
3037478 3037377 3037311
3037497 3037401 3037451
3037480 3037370 3037297
3037478 3037398 3037450
3037475 3037398 3037328
3037494 3037403 3037442
3037533 3037344 3037433
3037481 3037349 3037305
3037493 3037402 3037465
3037522 3037348 3037285
3037492 3037359 3037390
3037460 3037390 3037299
3037688 3037605 3037465
3037818 3037876 3037488
3037840 3037913 3037750
3037805 3037872 3037451
3037780 3037680 3037480
3037449 3037350 3037527
3037447 3037401 3037135
3037443 3037376 3037435
3037448 3037406 3037491
3037453 3037357 3037313
3037528 3037401 3037395
3037344 3037152 3037283
3037511 3036994 3037456
3039366 3039947 3038092
3040101 3041045 3037814
3038194 3037883 3035885
3037275 3036620 3035898
3037487 3037344 3037403
3037479 3037381 3037298
3037472 3037402 3037248
3037497 3037384 3037353
3037496 3037391 3037344
3037477 3037409 3037373
3037561 3037489 3037333
3037547 3037486 3037389
3037606 3037574 3037359
3037670 3037637 3037350
3037696 3037780 3037493
3037785 3037854 3037452
3037900 3038006 3037442
3038017 3038260 3037631
3038205 3038463 3037582
3038137 3038386 3037707
3038123 3038245 3037579
3037877 3037975 3037567
3037617 3037518 3037400
3037478 3037344 3037251
3037452 3037430 3037415
3037486 3037389 3037274
3037475 3037382 3037391
3037498 3037404 3037258
3037483 3037350 3037390
3037482 3037358 3037300
3037486 3037401 3037405
3037503 3037390 3037363
3037497 3037377 3037424
3037533 3037407 3037413
3037445 3037376 3037265
3037527 3037406 3037378
3037479 3037436 3037385
3037506 3037383 3037330
3037472 3037349 3037346
3037496 3037389 3037259
3037492 3037383 3037214
3037475 3037359 3037325
3037469 3037395 3037335
3037454 3037407 3037379
3037556 3037345 3037286
3037446 3037383 3037355
3037502 3037388 3037324
3037502 3037377 3037221
3037482 3037347 3037424
3037482 3037382 3037305
3037457 3037402 3037389
3037474 3037369 3037318
3037503 3037392 3037440
3037482 3037399 3037333
3037478 3037394 3037396
3037503 3037377 3037291
3037534 3037397 3037291
3037561 3037424 3037347
3037758 3037753 3037435
3037805 3037904 3037687
3037849 3037942 3037619
3037791 3037795 3037722
3037608 3037565 3037401
3037479 3037350 3037367
3037473 3037381 3037327
3037444 3037378 3037416
3037503 3037397 3037367
3037477 3037406 3037435
3037531 3037383 3037392
3037298 3036875 3037283
3038004 3037637 3037632
3039779 3040595 3038101
3039653 3040294 3037497
3037746 3037178 3035381
3037346 3036962 3036562
3037477 3037389 3037307
3037530 3037354 3037328
3037497 3037356 3037263
3037522 3037377 3037388
3037486 3037385 3037392
3037498 3037436 3037188
3037539 3037511 3037502
3037607 3037510 3037364
3037622 3037603 3037501
3037701 3037690 3037443
3037768 3037810 3037544
3037848 3037891 3037414
3037912 3038023 3037602
3038084 3038268 3037593
3038190 3038409 3037680
3038126 3038319 3037616
3038090 3038264 3037586
3037851 3037874 3037519
3037551 3037506 3037358
3037502 3037371 3037381
3037510 3037399 3037394
3037524 3037397 3037324
3037464 3037404 3037377
3037497 3037373 3037249
3037510 3037352 3037335
3037479 3037403 3037264
3037462 3037406 3037446
3037441 3037358 3037245
3037489 3037401 3037414
3037491 3037430 3037343
3037464 3037378 3037342
3037524 3037387 3037291
3037480 3037392 3037376
3037526 3037403 3037459
3037503 3037395 3037328
3037497 3037354 3037350
3037485 3037401 3037337
3037453 3037368 3037327
3037478 3037359 3037345
3037506 3037327 3037375
3037496 3037400 3037417
3037452 3037391 3037257
3037453 3037430 3037377
3037494 3037392 3037371
3037474 3037388 3037199
3037416 3037403 3037436
3037444 3037393 3037287
3037444 3037400 3037267
3037442 3037353 3037347
3037449 3037349 3037335
3037530 3037352 3037340
3037477 3037394 3037259
3037491 3037383 3037323
3037552 3037403 3037286
3037689 3037699 3037554
3037784 3037860 3037529
3037834 3037901 3037688
3037769 3037847 3037548
3037607 3037623 3037384
3037483 3037380 3037341
3037481 3037366 3037372
3037476 3037355 3037247
3037473 3037354 3037294
3037477 3037353 3037313
3037523 3037403 3037361
3037285 3036959 3037258
3037865 3037573 3037577
3039769 3040512 3038175
3039734 3040445 3037379
3037774 3037265 3035533
3037322 3036946 3036467
3037476 3037405 3037496
3037524 3037431 3037216
3037472 3037399 3037415
3037475 3037385 3037238
3037512 3037423 3037302
3037481 3037423 3037369
3037565 3037491 3037339
3037542 3037565 3037337
3037614 3037577 3037437
3037680 3037687 3037465
3037739 3037769 3037461
3037835 3037835 3037541
3037908 3037966 3037575
3038117 3038285 3037616
3038189 3038400 3037733
3038096 3038324 3037645
3038090 3038261 3037615
3037813 3037769 3037515
3037563 3037488 3037283
3037443 3037394 3037465
3037443 3037359 3037277
3037450 3037388 3037361
3037476 3037379 3037259
3037482 3037358 3037394
3037479 3037435 3037131
3037450 3037400 3037308
3037452 3037380 3037322
3037453 3037395 3037286
3037422 3037406 3037313
3037488 3037393 3037293
3037498 3037376 3037398
3037443 3037387 3037225
3037464 3037387 3037360
3037461 3037398 3037463
3037452 3037360 3037411
3037484 3037395 3037419
3037467 3037355 3037423
3037472 3037398 3037275
3037484 3037354 3037381
3037524 3037393 3037262
3037496 3037346 3037368
3037458 3037352 3037338
3037489 3037388 3037468
3037487 3037382 3037264
3037451 3037400 3037383
3037487 3037428 3037395
3037485 3037407 3037305
3037413 3037393 3037489
3037493 3037354 3037196
3037492 3037381 3037344
3037441 3037392 3037409
3037494 3037359 3037224
3037532 3037395 3037329
3037508 3037378 3037344
3037782 3037738 3037527
3037881 3037936 3037510
3037878 3037893 3037477
3037727 3037756 3037608
3037565 3037389 3037228
3037502 3037383 3037370
3037500 3037345 3037255
3037448 3037354 3037341
3037475 3037353 3037365
3037487 3037390 3037362
3037468 3037394 3037298
3037073 3036348 3037375
3038758 3038946 3037865
3040555 3041800 3038389
3038996 3039148 3036524
3037056 3036130 3034768
3037462 3037377 3037429
3037483 3037326 3037334
3037449 3037401 3037306
3037527 3037400 3037400
3037500 3037352 3037326
3037529 3037420 3037355
3037509 3037454 3037392
3037557 3037525 3037374
3037663 3037545 3037312
3037682 3037638 3037492
3037729 3037721 3037324
3037763 3037800 3037456
3037873 3037944 3037450
3037993 3038116 3037487
3038132 3038339 3037577
3038181 3038374 3037604
3038128 3038273 3037528
3037992 3038129 3037523
3037645 3037630 3037404
3037498 3037356 3037311
3037493 3037347 3037462
3037450 3037404 3037342
3037476 3037350 3037420
3037493 3037405 3037307
3037451 3037344 3037306
3037483 3037399 3037281
3037446 3037429 3037425
3037497 3037399 3037311
3037496 3037399 3037388
3037491 3037393 3037416
3037503 3037381 3037405
3037527 3037377 3037431
3037418 3037400 3037305
3037505 3037382 3037360
3037466 3037391 3037335
3037521 3037384 3037459
3037497 3037427 3037363
3037454 3037355 3037390
3037440 3037383 3037291
3037526 3037395 3037435
3037493 3037428 3037337
3037475 3037352 3037371
3037521 3037345 3037389
3037479 3037398 3037248
3037486 3037398 3037428
3037501 3037359 3037396
3037535 3037345 3037289
3037478 3037382 3037314
3037534 3037401 3037387
3037475 3037348 3037332
3037477 3037376 3037386
3037452 3037396 3037402
3037475 3037378 3037330
3037488 3037355 3037285
3037608 3037585 3037484
3037738 3037794 3037317
3037864 3037888 3037695
3037794 3037912 3037531
3037734 3037780 3037555
3037531 3037420 3037436
3037453 3037402 3037370
3037442 3037397 3037321
3037504 3037355 3037332
3037508 3037344 3037295
3037532 3037359 3037326
3037455 3037351 3037256
3037064 3036380 3037313
3038883 3039146 3037917
3040563 3041805 3038398
3038700 3038745 3036353
3037066 3036273 3034988
3037442 3037377 3037397
3037527 3037344 3037154
3037508 3037399 3037371
3037529 3037380 3037356
3037507 3037407 3037225
3037477 3037431 3037419
3037599 3037449 3037230
3037596 3037483 3037344
3037613 3037575 3037461
3037613 3037641 3037389
3037754 3037704 3037456
3037811 3037830 3037469
3037884 3037949 3037474
3037978 3038142 3037629
3038115 3038311 3037718
3038112 3038342 3037665
3038135 3038295 3037680
3037941 3038133 3037513
3037600 3037580 3037350
3037501 3037377 3037292
3037447 3037380 3037259
3037482 3037344 3037195
3037448 3037350 3037351
3037448 3037344 3037216
3037450 3037359 3037398
3037522 3037372 3037351
3037486 3037404 3037316
3037485 3037373 3037317
3037453 3037361 3037322
3037511 3037406 3037402
3037450 3037400 3037345
3037451 3037375 3037439
3037479 3037397 3037301
3037453 3037355 3037520
3037480 3037356 3037286
3037473 3037381 3037323
3037491 3037370 3037265
3037477 3037371 3037339
3037493 3037392 3037223
3037451 3037393 3037398
3037489 3037387 3037235
3037483 3037396 3037313
3037460 3037407 3037222
3037498 3037357 3037248
3037466 3037412 3037371
3037455 3037375 3037364
3037448 3037398 3037406
3037493 3037357 3037263
3037492 3037354 3037389
3037500 3037378 3037429
3037499 3037392 3037298
3037488 3037406 3037372
3037500 3037356 3037336
3037482 3037356 3037410
3037581 3037563 3037342
3037789 3037793 3037823
3037825 3037939 3037561
3037851 3037834 3037534
3037686 3037722 3037562
3037444 3037392 3037290
3037476 3037394 3037327
3037495 3037395 3037366
3037524 3037379 3037184
3037488 3037377 3037368
3037502 3037378 3037329
3037455 3037348 3037331
3037066 3036335 3037314
3038832 3039097 3037802
3040620 3041853 3038430
3038778 3038790 3036400
3037082 3036249 3035034
3037523 3037393 3037315
3037452 3037357 3037502
3037488 3037390 3037219
3037486 3037401 3037384
3037505 3037390 3037315
3037511 3037424 3037436
3037534 3037465 3037257
3037560 3037525 3037371
3037660 3037626 3037314
3037680 3037685 3037356
3037743 3037778 3037449
3037845 3037862 3037448
3037941 3038039 3037538
3038057 3038230 3037590
3038177 3038430 3037692
3038084 3038355 3037536
3038059 3038241 3037673
3037822 3037862 3037391
3037593 3037500 3037441
3037453 3037382 3037289
3037475 3037363 3037380
3037449 3037345 3037288
3037453 3037393 3037350
3037472 3037358 3037439
3037525 3037357 3037314
3037451 3037354 3037385
3037494 3037346 3037333
3037525 3037353 3037295
3037442 3037405 3037222
3037443 3037402 3037463
3037448 3037397 3037279
3037463 3037412 3037422
3037456 3037351 3037295
3037475 3037392 3037258
3037473 3037407 3037440
3037455 3037406 3037324
3037447 3037400 3037402
3037450 3037344 3037289
3037487 3037397 3037281
3037486 3037324 3037162
3037452 3037350 3037457
3037477 3037344 3037208
3037526 3037386 3037347
3037454 3037368 3037368
3037447 3037382 3037276
3037454 3037356 3037436
3037448 3037382 3037293
3037448 3037376 3037413
3037448 3037399 3037223
3037417 3037393 3037435
3037483 3037398 3037339
3037483 3037404 3037497
3037520 3037429 3037402
3037503 3037315 3037393
3037710 3037685 3037577
3037799 3037860 3037537
3037854 3037924 3037678
3037774 3037800 3037463
3037609 3037639 3037561
3037477 3037395 3037330
3037497 3037351 3037343
3037491 3037377 3037365
3037458 3037397 3037335
3037489 3037371 3037373
3037503 3037381 3037333
3037424 3037237 3037307
3037386 3036778 3037371
3039607 3040202 3038110
3039873 3040707 3037541
3037957 3037584 3035500
3037254 3036744 3036121
3037499 3037402 3037322
3037490 3037400 3037229
3037498 3037377 3037387
3037496 3037382 3037346
3037477 3037431 3037249
3037562 3037420 3037443
3037557 3037479 3037334
3037597 3037556 3037554
3037622 3037629 3037383
3037642 3037643 3037443
3037707 3037736 3037531
3037798 3037858 3037537
3037905 3037964 3037524
3038029 3038227 3037523
3038148 3038426 3037718
3038139 3038306 3037631
3038111 3038209 3037631
3037794 3037917 3037449
3037591 3037521 3037449
3037450 3037326 3037221
3037473 3037396 3037381
3037484 3037396 3037339
3037533 3037355 3037292
3037470 3037393 3037281
3037420 3037356 3037409
3037487 3037379 3037260
3037477 3037355 3037351
3037498 3037400 3037366
3037484 3037386 3037336
3037508 3037345 3037382
3037492 3037406 3037295
3037477 3037392 3037390
3037466 3037356 3037304
3037441 3037399 3037326
3037502 3037395 3037290
3037451 3037358 3037348
3037499 3037345 3037393
3037461 3037389 3037417
3037465 3037354 3037234
3037455 3037353 3037295
3037484 3037352 3037336
3037440 3037378 3037349
3037453 3037379 3037256
3037481 3037354 3037360
3037448 3037382 3037283
3037497 3037407 3037328
3037472 3037403 3037439
3037521 3037372 3037269
3037494 3037391 3037470
3037460 3037348 3037339
3037475 3037357 3037263
3037476 3037399 3037327
3037535 3037371 3037369
3037486 3037378 3037283
3037694 3037694 3037316
3037798 3037858 3037608
3037847 3037905 3037532
3037767 3037822 3037616
3037603 3037535 3037382
3037502 3037404 3037555
3037501 3037394 3037360
3037500 3037345 3037366
3037448 3037397 3037282
3037476 3037393 3037363
3037503 3037438 3037271
3037317 3036991 3037457
3037812 3037458 3037618
3039704 3040367 3038027
3039820 3040525 3037615
3037868 3037381 3035453
3037343 3036891 3036422
3037440 3037356 3037189
3037478 3037395 3037352
3037499 3037392 3037285
3037466 3037345 3037371
3037534 3037390 3037283
3037476 3037444 3037351
3037567 3037502 3037381
3037593 3037515 3037496
3037658 3037619 3037407
3037681 3037725 3037313
3037743 3037783 3037510
3037845 3037907 3037557
3037926 3038026 3037592
3038143 3038265 3037582
3038213 3038430 3037743
3038088 3038280 3037718
3038111 3038260 3037708
3037766 3037842 3037427
3037561 3037491 3037487
3037488 3037358 3037461
3037489 3037403 3037293
3037461 3037378 3037492
3037447 3037430 3037260
3037503 3037374 3037377
3037446 3037389 3037394
3037452 3037375 3037250
3037487 3037403 3037256
3037486 3037383 3037126
3037472 3037402 3037156
3037481 3037347 3037298
3037503 3037345 3037305
3037483 3037404 3037328
3037441 3037400 3037337
3037450 3037373 3037394
3037532 3037358 3037366
3037444 3037395 3037369
3037495 3037405 3037399
3037458 3037402 3037298
3037459 3037388 3037485
3037490 3037375 3037206
3037485 3037395 3037194
3037450 3037395 3037364
3037478 3037399 3037191
3037490 3037407 3037352
3037494 3037351 3037159
3037525 3037371 3037294
3037480 3037349 3037298
3037502 3037357 3037322
3037455 3037378 3037304
3037521 3037347 3037255
3037501 3037405 3037368
3037484 3037403 3037255
3037452 3037381 3037259
3037675 3037633 3037422
3037806 3037884 3037572
3037853 3037916 3037715
3037782 3037843 3037528
3037667 3037660 3037560
3037440 3037398 3037287
3037442 3037346 3037404
3037503 3037401 3037281
3037442 3037362 3037395
3037475 3037358 3037285
3037476 3037394 3037356
3037415 3037162 3037300
3037422 3036919 3037350
3039314 3039819 3038067
3040222 3041148 3037873
3038266 3038011 3035915
3037225 3036693 3035985
3037456 3037346 3037231
3037501 3037394 3037344
3037441 3037397 3037394
3037447 3037393 3037221
3037485 3037430 3037462
3037497 3037419 3037437
3037596 3037471 3037292
3037583 3037531 3037460
3037663 3037584 3037326
3037643 3037639 3037524
3037733 3037745 3037445
3037768 3037861 3037477
3037943 3037971 3037489
3038027 3038156 3037546
3038162 3038420 3037622
3038158 3038351 3037656
3038083 3038267 3037691
3037909 3037934 3037337
3037663 3037538 3037388
3037491 3037324 3037278
3037444 3037383 3037402
3037454 3037395 3037251
3037477 3037393 3037403
3037484 3037354 3037287
3037442 3037406 3037448
3037483 3037357 3037286
3037448 3037356 3037367
3037452 3037346 3037295
3037491 3037359 3037373
3037440 3037400 3037381
3037455 3037396 3037326
3037480 3037377 3037456
3037442 3037397 3037299
3037454 3037358 3037339
3037446 3037356 3037255
3037488 3037344 3037221
3037441 3037388 3037431
3037518 3037404 3037239
3037465 3037379 3037272
3037485 3037380 3037191
3037525 3037372 3037357
3037508 3037397 3037179
3037490 3037344 3037260
3037476 3037381 3037395
3037447 3037398 3037213
3037497 3037358 3037325
3037485 3037404 3037300
3037413 3037379 3037393
3037473 3037407 3037326
3037466 3037390 3037425
3037418 3037404 3037260
3037480 3037348 3037317
3037457 3037327 3037328
3037445 3037393 3037349
3037618 3037572 3037508
3037767 3037887 3037591
3037855 3037903 3037686
3037792 3037889 3037647
3037683 3037718 3037527
3037498 3037407 3037475
3037499 3037396 3037382
3037465 3037368 3037250
3037501 3037378 3037426
3037502 3037357 3037212
3037525 3037395 3037401
3037456 3037317 3037318
3037268 3036600 3037239
3039136 3039519 3037995
3040398 3041451 3038073
3038434 3038304 3036075
3037203 3036395 3035415
3037464 3037344 3037248
3037475 3037352 3037280
3037497 3037373 3037363
3037451 3037357 3037399
3037451 3037438 3037321
3037534 3037438 3037398
3037565 3037458 3037240
3037587 3037510 3037432
3037619 3037574 3037344
3037645 3037642 3037408
3037755 3037757 3037460
3037804 3037850 3037380
3037883 3038005 3037350
3038069 3038147 3037654
3038180 3038394 3037532
3038116 3038329 3037607
3038102 3038247 3037590
3037861 3037952 3037391
3037621 3037542 3037395
3037469 3037357 3037254
3037454 3037403 3037391
3037495 3037402 3037286
3037502 3037407 3037425
3037486 3037377 3037231
3037452 3037403 3037395
3037521 3037347 3037283
3037465 3037402 3037360
3037440 3037345 3037434
3037466 3037404 3037265
3037490 3037397 3037424
3037478 3037369 3037293
3037490 3037349 3037356
3037484 3037397 3037272
3037470 3037385 3037289
3037459 3037355 3037401
3037498 3037321 3037220
3037449 3037391 3037498
3037502 3037401 3037186
3037465 3037402 3037432
3037522 3037382 3037363
3037442 3037355 3037307
3037527 3037344 3037280
3037461 3037383 3037278
3037448 3037405 3037305
3037452 3037345 3037343
3037492 3037405 3037368
3037525 3037394 3037242
3037464 3037394 3037293
3037464 3037389 3037354
3037500 3037398 3037274
3037492 3037354 3037323
3037439 3037387 3037428
3037454 3037356 3037315
3037658 3037621 3037589
3037736 3037798 3037607
3037876 3037916 3037680
3037805 3037911 3037648
3037712 3037674 3037454
3037487 3037402 3037484
3037451 3037354 3037206
3037499 3037377 3037411
3037451 3037407 3037305
3037412 3037379 3037430
3037502 3037387 3037287
3037466 3037380 3037357
3037038 3036321 3037340
3038938 3039188 3037968
3040552 3041814 3038419
3038684 3038663 3036306
3037271 3036741 3036092
3037455 3037372 3037265
3037451 3037428 3037320
3037494 3037374 3037320
3037532 3037403 3037299
3037498 3037390 3037329
3037507 3037422 3037302
3037505 3037503 3037455
3037600 3037533 3037407
3037663 3037600 3037370
3037691 3037639 3037472
3037750 3037790 3037463
3037819 3037868 3037403
3037908 3038007 3037564
3038049 3038222 3037577
3038180 3038378 3037844
3038120 3038314 3037523
3038111 3038237 3037586
3037845 3037904 3037461
3037590 3037480 3037449
3037466 3037358 3037258
3037475 3037356 3037397
3037443 3037400 3037223
3037477 3037425 3037344
3037463 3037380 3037263
3037487 3037397 3037346
3037485 3037401 3037301
3037465 3037406 3037374
3037489 3037352 3037398
3037488 3037404 3037371
3037455 3037357 3037261
3037491 3037374 3037387
3037417 3037406 3037346
3037488 3037434 3037280
3037497 3037407 3037329
3037477 3037393 3037444
3037525 3037345 3037337
3037474 3037344 3037515
3037420 3037371 3037304
3037455 3037430 3037463
3037491 3037354 3037288
3037489 3037354 3037350
3037497 3037402 3037465
3037521 3037377 3037356
3037527 3037398 3037322
3037501 3037395 3037369
3037492 3037350 3037382
3037500 3037387 3037211
3037503 3037401 3037409
3037490 3037355 3037247
3037498 3037388 3037468
3037454 3037392 3037343
3037497 3037392 3037329
3037500 3037359 3037367
3037449 3037344 3037257
3037723 3037600 3037530
3037814 3037866 3037506
3037829 3037888 3037680
3037822 3037873 3037451
3037639 3037639 3037556
3037472 3037404 3037332
3037445 3037429 3037401
3037443 3037355 3037559
3037521 3037405 3037379
3037473 3037353 3037210
3037449 3037350 3037468
3037337 3037091 3037257
3037571 3037181 3037512
3039511 3040092 3038135
3039985 3040846 3037747
3038065 3037695 3035665
3037308 3036735 3036004
3037455 3037395 3037391
3037440 3037382 3037375
3037421 3037352 3037502
3037532 3037352 3037351
3037479 3037396 3037208
3037498 3037410 3037330
3037546 3037502 3037313
3037505 3037559 3037410
3037582 3037596 3037325
3037692 3037682 3037443
3037747 3037736 3037315
3037760 3037881 3037432
3037867 3037961 3037481
3038062 3038257 3037619
3038146 3038453 3037615
3038086 3038335 3037676
3038072 3038264 3037451
3037876 3037939 3037516
3037626 3037516 3037413
3037414 3037387 3037251
3037527 3037348 3037376
3037477 3037344 3037288
3037490 3037379 3037391
3037500 3037398 3037312
3037444 3037396 3037432
3037489 3037403 3037238
3037489 3037398 3037334
3037468 3037376 3037276
3037449 3037403 3037341
3037484 3037344 3037457
3037484 3037406 3037288
3037535 3037393 3037360
3037451 3037399 3037464
3037485 3037356 3037315
3037500 3037346 3037322
3037440 3037404 3037308
3037494 3037381 3037164
3037522 3037407 3037426
3037489 3037403 3037303
3037496 3037407 3037491
3037530 3037358 3037290
3037441 3037379 3037374
3037454 3037383 3037392
3037442 3037395 3037346
3037453 3037405 3037306
3037477 3037388 3037380
3037496 3037397 3037353
3037449 3037349 3037217
3037453 3037352 3037449
3037422 3037386 3037350
3037433 3037381 3037329
3037487 3037344 3037347
3037488 3037373 3037121
3037488 3037383 3037205
3037669 3037696 3037603
3037829 3037865 3037493
3037831 3037944 3037633
3037782 3037823 3037543
3037660 3037595 3037495
3037496 3037359 3037295
3037494 3037347 3037317
3037459 3037393 3037407
3037485 3037376 3037273
3037465 3037356 3037353
3037495 3037400 3037290
3037374 3037100 3037438
3037574 3037113 3037565
3039453 3040025 3038020
3040055 3040991 3037835
3038110 3037815 3035635
3037224 3036640 3035969
3037525 3037393 3037233
3037501 3037380 3037376
3037524 3037396 3037304
3037496 3037406 3037236
3037497 3037430 3037260
3037504 3037458 3037425
3037563 3037503 3037357
3037594 3037515 3037496
3037659 3037606 3037439
3037642 3037667 3037387
3037785 3037729 3037511
3037851 3037828 3037452
3037945 3038006 3037539
3038063 3038223 3037599
3038233 3038407 3037730
3038090 3038313 3037542
3038088 3038241 3037707
3037840 3037869 3037450
3037543 3037535 3037469
3037496 3037380 3037352
3037466 3037431 3037364
3037526 3037377 3037298
3037495 3037403 3037402
3037454 3037372 3037406
3037534 3037351 3037420
3037499 3037345 3037294
3037493 3037406 3037260
3037442 3037407 3037438
3037465 3037350 3037226
3037493 3037395 3037422
3037472 3037358 3037303
3037418 3037398 3037409
3037484 3037345 3037248
3037410 3037378 3037353
3037492 3037372 3037298
3037509 3037398 3037308
3037473 3037402 3037375
3037491 3037354 3037277
3037497 3037396 3037387
3037531 3037404 3037309
3037443 3037392 3037394
3037469 3037384 3037352
3037445 3037392 3037529
3037489 3037376 3037372
3037482 3037344 3037427
3037523 3037344 3037352
3037478 3037358 3037243
3037497 3037382 3037411
3037443 3037355 3037313
3037498 3037346 3037414
3037454 3037392 3037256
3037509 3037383 3037322
3037501 3037405 3037259
3037502 3037495 3037525
3037786 3037734 3037456
3037800 3037950 3037615
3037877 3037913 3037613
3037750 3037790 3037387
3037573 3037535 3037480
3037468 3037395 3037304
3037445 3037396 3037349
3037473 3037376 3037405
3037460 3037399 3037250
3037478 3037358 3037281
3037491 3037345 3037470
3037189 3036783 3037254
3038087 3037960 3037720
3039993 3040924 3038434
3039436 3039988 3037129
3037493 3036814 3035196
3037313 3037156 3036811
3037483 3037355 3037331
3037523 3037407 3037257
3037465 3037402 3037353
3037449 3037425 3037164
3037516 3037378 3037324
3037529 3037467 3037317
3037551 3037524 3037272
3037545 3037562 3037459
3037650 3037654 3037311
3037713 3037726 3037489
3037778 3037763 3037371
3037835 3037903 3037454
3037951 3038073 3037567
3038056 3038287 3037583
3038202 3038384 3037684
3038088 3038328 3037680
3038066 3038217 3037596
3037669 3037746 3037508
3037526 3037468 3037390
3037448 3037354 3037368
3037490 3037380 3037318
3037507 3037373 3037296
3037466 3037381 3037351
3037471 3037352 3037289
3037478 3037379 3037358
3037492 3037406 3037226
3037467 3037349 3037397
3037510 3037362 3037193
3037493 3037403 3037366
3037518 3037406 3037292
3037489 3037398 3037400
3037472 3037404 3037347
3037463 3037389 3037328
3037482 3037395 3037368
3037455 3037386 3037463
3037489 3037358 3037293
3037501 3037379 3037339
3037445 3037398 3037307
3037484 3037406 3037287
3037415 3037376 3037370
3037451 3037439 3037333
3037494 3037381 3037428
3037478 3037428 3037252
3037477 3037358 3037316
3037501 3037344 3037229
3037451 3037375 3037368
3037490 3037401 3037358
3037440 3037350 3037362
3037506 3037385 3037424
3037501 3037359 3037287
3037474 3037353 3037391
3037511 3037403 3037323
3037477 3037344 3037377
3037536 3037454 3037276
3037785 3037810 3037415
3037845 3037942 3037593
3037854 3037937 3037466
3037759 3037751 3037442
3037504 3037411 3037259
3037453 3037393 3037329
3037440 3037403 3037508
3037455 3037398 3037236
3037421 3037381 3037388
3037446 3037435 3037375
3037416 3037392 3037232
3037127 3036604 3037421
3038349 3038407 3037649
3040256 3041314 3038375
3039196 3039548 3036854
3037231 3036334 3034893
3037424 3037320 3037263
3037443 3037399 3037436
3037441 3037397 3037340
3037493 3037352 3037384
3037501 3037377 3037431
3037484 3037429 3037377
3037520 3037471 3037307
3037514 3037521 3037436
3037536 3037546 3037294
3037648 3037651 3037542
3037715 3037755 3037390
3037763 3037803 3037425
3037878 3037896 3037564
3037989 3038108 3037417
3038120 3038297 3037717
3038122 3038378 3037655
3038091 3038292 3037614
3037999 3038197 3037618
3037694 3037660 3037490
3037488 3037422 3037343
3037458 3037355 3037463
3037481 3037352 3037403
3037523 3037403 3037330
3037474 3037394 3037391
3037494 3037423 3037349
3037500 3037398 3037275
3037448 3037357 3037375
3037478 3037397 3037297
3037447 3037398 3037194
3037487 3037400 3037315
3037521 3037405 3037160
3037444 3037376 3037307
3037454 3037379 3037195
3037507 3037351 3037310
3037493 3037404 3037263
3037520 3037345 3037404
3037475 3037374 3037416
3037461 3037401 3037392
3037499 3037401 3037367
3037486 3037382 3037358
3037521 3037355 3037363
3037484 3037405 3037329
3037527 3037352 3037396
3037466 3037353 3037534
3037502 3037392 3037303
3037494 3037347 3037558
3037527 3037383 3037387
3037497 3037355 3037221
3037457 3037401 3037414
3037451 3037398 3037326
3037480 3037345 3037409
3037477 3037396 3037230
3037491 3037359 3037400
3037513 3037395 3037284
3037683 3037684 3037489
3037814 3037854 3037536
3037843 3037941 3037512
3037804 3037869 3037581
3037646 3037633 3037465
3037454 3037401 3037248
3037445 3037396 3037398
3037493 3037407 3037305
3037491 3037370 3037353
3037450 3037382 3037322
3037452 3037401 3037340
3037456 3037319 3037286
3037404 3036886 3037536
3039324 3039805 3037921
3040219 3041182 3038028
3038427 3038327 3035896
3037211 3036467 3035419
3037499 3037405 3037458
3037448 3037355 3037159
3037504 3037350 3037398
3037446 3037427 3037268
3037485 3037439 3037380
3037449 3037426 3037277
3037584 3037463 3037309
3037577 3037532 3037383
3037597 3037586 3037358
3037717 3037687 3037434
3037795 3037745 3037314
3037821 3037832 3037549
3037870 3037897 3037346
3038020 3038196 3037747
3038155 3038374 3037567
3038136 3038312 3037568
3038142 3038248 3037656
3037945 3038011 3037456
3037611 3037548 3037355
3037444 3037321 3037368
3037496 3037372 3037316
3037527 3037398 3037230
3037518 3037403 3037517
3037444 3037351 3037278
3037524 3037386 3037329
3037486 3037397 3037280
3037451 3037358 3037327
3037510 3037355 3037338
3037454 3037378 3037349
3037503 3037358 3037437
3037523 3037399 3037254
3037420 3037430 3037407
3037469 3037406 3037238
3037535 3037395 3037381
3037453 3037400 3037216
3037473 3037350 3037371
3037500 3037355 3037480
3037488 3037376 3037298
3037448 3037378 3037375
3037485 3037358 3037386
3037491 3037347 3037259
3037502 3037376 3037554
3037463 3037389 3037319
3037473 3037395 3037406
3037454 3037352 3037292
3037483 3037346 3037192
3037448 3037401 3037404
3037485 3037345 3037253
3037499 3037382 3037414
3037452 3037391 3037168
3037450 3037362 3037334
3037465 3037424 3037266
3037489 3037354 3037298
3037473 3037399 3037268
3037613 3037649 3037388
3037809 3037848 3037592
3037854 3037903 3037478
3037762 3037879 3037582
3037722 3037693 3037436
3037490 3037370 3037270
3037497 3037391 3037258
3037501 3037344 3037318
3037492 3037395 3037404
3037468 3037439 3037324
3037493 3037353 3037393
3037500 3037358 3037398
3037107 3036368 3037390
3038962 3039213 3037770
3040560 3041788 3038365
3038639 3038629 3036406
3037110 3036338 3035106
3037530 3037399 3037380
3037523 3037356 3037286
3037489 3037384 3037357
3037484 3037401 3037401
3037534 3037353 3037344
3037521 3037413 3037308
3037540 3037493 3037503
3037550 3037505 3037362
3037621 3037540 3037489
3037669 3037613 3037500
3037720 3037729 3037407
3037855 3037852 3037525
3037911 3037925 3037520
3038031 3038178 3037656
3038113 3038396 3037662
3038144 3038354 3037697
3038086 3038301 3037623
3037938 3038031 3037688
3037576 3037572 3037346
3037441 3037398 3037410
3037502 3037398 3037381
3037488 3037402 3037338
3037481 3037349 3037395
3037471 3037400 3037365
3037531 3037392 3037367
3037503 3037356 3037433
3037487 3037393 3037308
3037489 3037347 3037254
3037453 3037407 3037361
3037501 3037326 3037312
3037524 3037406 3037454
3037494 3037403 3037308
3037473 3037404 3037415
3037517 3037357 3037283
3037464 3037394 3037409
3037438 3037347 3037334
3037443 3037360 3037316
3037501 3037383 3037405
3037489 3037399 3037152
3037475 3037347 3037411
3037455 3037437 3037220
3037498 3037370 3037318
3037500 3037382 3037471
3037473 3037344 3037237
3037449 3037357 3037471
3037490 3037392 3037288
3037502 3037394 3037324
3037445 3037352 3037288
3037477 3037402 3037299
3037451 3037396 3037289
3037556 3037349 3037294
3037499 3037388 3037425
3037497 3037355 3037291
3037501 3037356 3037266
3037680 3037582 3037405
3037799 3037846 3037553
3037843 3037924 3037655
3037803 3037917 3037483
3037665 3037681 3037387
3037442 3037369 3037363
3037534 3037354 3037327
3037479 3037439 3037463
3037462 3037344 3037258
3037448 3037355 3037357
3037519 3037399 3037354
3037472 3037369 3037338
3037165 3036505 3037361
3039199 3039622 3038014
3040343 3041366 3038029
3037754 3037137 3035125
3037348 3036972 3036487
3037493 3037398 3037317
3037533 3037400 3037372
3037491 3037346 3037393
3037527 3037400 3037304
3037448 3037380 3037315
3037526 3037422 3037325
3037486 3037523 3037240
3037579 3037551 3037469
3037609 3037631 3037279
3037635 3037667 3037480
3037790 3037815 3037453
3037792 3037917 3037382
3037901 3038043 3037617
3038109 3038261 3037545
3038187 3038378 3037664
3038166 3038327 3037591
3038107 3038244 3037642
3037698 3037841 3037396
3037543 3037527 3037409
3037528 3037390 3037298
3037482 3037364 3037304
3037491 3037391 3037410
3037460 3037400 3037214
3037502 3037390 3037462
3037490 3037352 3037220
3037416 3037413 3037356
3037502 3037347 3037334
3037474 3037400 3037351
3037490 3037385 3037270
3037462 3037404 3037322
3037465 3037392 3037283
3037525 3037406 3037342
3037499 3037381 3037355
3037461 3037359 3037134
3037525 3037347 3037355
3037445 3037406 3037228
3037474 3037398 3037307
3037476 3037392 3037249
3037491 3037351 3037396
3037422 3037407 3037303
3037459 3037398 3037461
3037499 3037396 3037311
3037449 3037392 3037380
3037511 3037354 3037353
3037480 3037355 3037275
3037491 3037405 3037434
3037492 3037398 3037302
3037479 3037405 3037305
3037527 3037386 3037341
3037475 3037388 3037179
3037488 3037403 3037348
3037524 3037354 3037141
3037448 3037380 3037458
3037499 3037402 3037334
3037710 3037758 3037451
3037819 3037914 3037585
3037849 3037943 3037570
3037779 3037844 3037585
3037568 3037508 3037384
3037493 3037395 3037227
3037501 3037369 3037381
3037491 3037352 3037418
3037524 3037381 3037230
3037447 3037383 3037377
3037461 3037400 3037249
3037277 3036912 3037364
3037897 3037610 3037689
3039760 3040575 3038176
3039651 3040354 3037446
3037732 3037210 3035354
3037323 3036935 3036638
3037520 3037344 3037230
3037532 3037405 3037466
3037445 3037381 3037311
3037452 3037407 3037468
3037530 3037380 3037313
3037514 3037416 3037278
3037588 3037524 3037439
3037620 3037508 3037328
3037663 3037609 3037287
3037693 3037724 3037437
3037789 3037813 3037408
3037850 3037880 3037422
3037915 3038052 3037688
3038075 3038246 3037554
3038230 3038448 3037642
3038092 3038274 3037585
3038042 3038248 3037708
3037795 3037760 3037437
3037562 3037501 3037461
3037468 3037391 3037355
3037520 3037404 3037434
3037484 3037393 3037459
3037449 3037386 3037266
3037524 3037398 3037327
3037467 3037361 3037230
3037500 3037357 3037297
3037555 3037347 3037453
3037446 3037428 3037268
3037443 3037379 3037167
3037529 3037379 3037430
3037482 3037353 3037120
3037453 3037406 3037500
3037520 3037348 3037311
3037409 3037397 3037333
3037449 3037404 3037427
3037501 3037406 3037229
3037489 3037399 3037414
3037421 3037426 3037445
3037456 3037402 3037290
3037494 3037400 3037362
3037521 3037359 3037250
3037493 3037407 3037465
3037421 3037350 3037364
3037488 3037344 3037422
3037535 3037403 3037424
3037497 3037361 3037327
3037524 3037407 3037293
3037443 3037402 3037391
3037459 3037382 3037303
3037496 3037383 3037332
3037497 3037392 3037248
3037472 3037347 3037378
3037527 3037388 3037318
3037482 3037459 3037360
3037718 3037737 3037564
3037806 3037892 3037450
3037798 3037941 3037659
3037755 3037817 3037379
3037595 3037534 3037463
3037494 3037379 3037259
3037452 3037345 3037277
3037482 3037326 3037394
3037496 3037361 3037280
3037495 3037358 3037354
3037494 3037351 3037226
3037310 3036810 3037366
3037966 3037817 3037600
3039752 3040458 3038244
3039750 3040449 3037573
3037442 3036761 3035118
3037376 3037140 3036780
3037448 3037356 3037406
3037464 3037378 3037230
3037481 3037396 3037240
3037508 3037428 3037266
3037472 3037384 3037317
3037506 3037432 3037363
3037591 3037521 3037287
3037575 3037566 3037324
3037644 3037600 3037280
3037717 3037676 3037381
3037756 3037760 3037525
3037831 3037892 3037360
3037917 3038030 3037677
3038091 3038248 3037569
3038185 3038413 3037700
3038096 3038308 3037697
3038104 3038224 3037463
3037776 3037761 3037536
3037516 3037414 3037450
3037418 3037387 3037225
3037524 3037353 3037489
3037471 3037397 3037270
3037529 3037348 3037295
3037503 3037398 3037273
3037490 3037375 3037405
3037440 3037402 3037271
3037466 3037405 3037311
3037481 3037395 3037260
3037498 3037346 3037217
3037469 3037399 3037443
3037557 3037394 3037312
3037524 3037358 3037383
3037496 3037356 3037409
3037527 3037398 3037269
3037472 3037391 3037412
3037478 3037382 3037233
3037491 3037406 3037393
3037500 3037352 3037344
3037477 3037404 3037407
3037500 3037395 3037265
3037444 3037364 3037392
3037455 3037404 3037311
3037482 3037348 3037426
3037511 3037406 3037194
3037532 3037370 3037268
3037483 3037399 3037437
3037443 3037399 3037295
3037444 3037398 3037365
3037488 3037358 3037362
3037485 3037357 3037267
3037490 3037402 3037429
3037476 3037355 3037281
3037532 3037395 3037488
3037544 3037564 3037469
3037775 3037765 3037527
3037883 3037896 3037614
3037843 3037867 3037552
3037711 3037707 3037587
3037519 3037465 3037357
3037454 3037406 3037254
3037525 3037393 3037269
3037483 3037346 3037400
3037488 3037345 3037257
3037488 3037410 3037377
3037498 3037406 3037187
3037040 3036382 3037322
3038755 3038962 3037772
3040554 3041820 3038337
3038849 3038973 3036406
3037086 3036155 3034914
3037455 3037383 3037253
3037487 3037352 3037188
3037482 3037348 3037385
3037502 3037381 3037210
3037497 3037382 3037360
3037472 3037436 3037297
3037531 3037463 3037320
3037549 3037485 3037506
3037612 3037519 3037291
3037649 3037627 3037450
3037705 3037696 3037411
3037792 3037794 3037407
3037853 3037951 3037504
3038012 3038157 3037569
3038124 3038349 3037535
3038206 3038350 3037656
3038133 3038303 3037470
3037963 3038073 3037561
3037654 3037608 3037417
3037475 3037357 3037269
3037464 3037353 3037400
3037496 3037400 3037354
3037449 3037407 3037325
3037475 3037431 3037414
3037445 3037374 3037332
3037457 3037355 3037296
3037468 3037396 3037350
3037440 3037382 3037362
3037497 3037404 3037280
3037494 3037354 3037460
3037432 3037392 3037373
3037497 3037379 3037279
3037491 3037428 3037440
3037483 3037395 3037333
3037487 3037347 3037287
3037520 3037359 3037375
3037521 3037352 3037274
3037489 3037396 3037412
3037453 3037356 3037343
3037521 3037403 3037193
3037501 3037377 3037357
3037439 3037400 3037311
3037523 3037392 3037401
3037473 3037397 3037156
3037452 3037396 3037290
3037479 3037406 3037430
3037442 3037399 3037279
3037526 3037404 3037307
3037440 3037397 3037288
3037454 3037399 3037326
3037488 3037407 3037282
3037500 3037398 3037394
3037493 3037390 3037153
3037503 3037398 3037478
3037627 3037585 3037369
3037761 3037808 3037606
3037844 3037915 3037649
3037817 3037865 3037625
3037705 3037699 3037592
3037532 3037388 3037309
3037449 3037395 3037334
3037491 3037375 3037279
3037476 3037358 3037534
3037523 3037357 3037307
3037471 3037382 3037376
3037502 3037353 3037387
3037094 3036390 3037311
3038691 3038861 3037840
3040604 3041737 3038296
3038860 3039067 3036610
3037077 3036159 3034696
3037490 3037377 3037285
3037496 3037346 3037263
3037510 3037377 3037403
3037453 3037385 3037272
3037529 3037381 3037498
3037530 3037437 3037231
3037507 3037469 3037498
3037607 3037513 3037430
3037629 3037543 3037432
3037694 3037653 3037595
3037715 3037753 3037386
3037813 3037830 3037529
3037828 3037950 3037534
3037998 3038129 3037560
3038145 3038360 3037639
3038192 3038372 3037619
3038108 3038273 3037686
3037936 3038048 3037520
3037616 3037587 3037468
3037441 3037383 3037372
3037440 3037397 3037280
3037486 3037401 3037249
3037447 3037398 3037371
3037490 3037365 3037273
3037488 3037407 3037373
3037501 3037395 3037396
3037450 3037361 3037196
3037477 3037396 3037345
3037495 3037347 3037276
3037477 3037380 3037436
3037497 3037382 3037306
3037450 3037397 3037329
3037520 3037349 3037252
3037503 3037345 3037467
3037442 3037405 3037384
3037467 3037399 3037301
3037490 3037404 3037468
3037452 3037355 3037258
3037444 3037397 3037385
3037475 3037399 3037309
3037531 3037389 3037363
3037503 3037383 3037291
3037449 3037402 3037488
3037469 3037399 3037204
3037486 3037405 3037253
3037441 3037403 3037276
3037467 3037395 3037316
3037486 3037392 3037430
3037450 3037346 3037458
3037497 3037402 3037287
3037502 3037349 3037321
3037416 3037380 3037400
3037503 3037353 3037240
3037474 3037355 3037556
3037727 3037666 3037435
3037808 3037908 3037607
3037823 3037934 3037777
3037813 3037817 3037526
3037695 3037575 3037466
3037463 3037407 3037305
3037474 3037396 3037315
3037522 3037322 3037439
3037476 3037357 3037234
3037442 3037382 3037372
3037474 3037369 3037282
3037057 3036386 3037389
3038633 3038787 3037638
3040483 3041702 3038427
3038958 3039125 3036517
3037112 3036101 3034759
3037450 3037410 3037391
3037503 3037357 3037157
3037472 3037404 3037329
3037494 3037385 3037302
3037532 3037359 3037253
3037476 3037435 3037520
3037515 3037452 3037317
3037620 3037475 3037433
3037624 3037587 3037424
3037695 3037611 3037402
3037751 3037725 3037535
3037730 3037800 3037420
3037856 3037898 3037367
3038046 3038104 3037571
3038114 3038304 3037568
3038174 3038371 3037622
3038118 3038298 3037659
3038032 3038163 3037501
3037661 3037617 3037409
3037506 3037405 3037258
3037468 3037380 3037360
3037491 3037383 3037257
3037440 3037326 3037281
3037498 3037377 3037216
3037469 3037377 3037295
3037499 3037355 3037367
3037496 3037376 3037276
3037495 3037345 3037391
3037494 3037406 3037201
3037476 3037392 3037407
3037463 3037347 3037246
3037474 3037386 3037274
3037532 3037377 3037341
3037537 3037400 3037432
3037445 3037402 3037355
3037477 3037347 3037216
3037498 3037380 3037297
3037500 3037352 3037282
3037484 3037365 3037326
3037496 3037402 3037329
3037451 3037325 3037226
3037473 3037407 3037367
3037471 3037396 3037365
3037418 3037353 3037420
3037450 3037376 3037221
3037488 3037367 3037394
3037448 3037400 3037292
3037448 3037407 3037306
3037472 3037395 3037396
3037484 3037371 3037301
3037452 3037395 3037426
3037492 3037396 3037302
3037523 3037372 3037282
3037499 3037355 3037322
3037570 3037514 3037452
3037787 3037817 3037379
3037884 3037913 3037659
3037874 3037898 3037481
3037724 3037729 3037522
3037518 3037469 3037392
3037464 3037389 3037286
3037490 3037402 3037458
3037472 3037351 3037290
3037493 3037381 3037355
3037496 3037368 3037351
3037464 3037384 3037405
3037146 3036547 3037362
3038447 3038480 3037688
3040373 3041404 3038375
3039113 3039481 3036867
3037202 3036304 3034799
3037466 3037320 3037320
3037490 3037351 3037216
3037491 3037357 3037360
3037475 3037358 3037240
3037534 3037395 3037471
3037522 3037463 3037292
3037529 3037444 3037346
3037586 3037480 3037358
3037618 3037566 3037404
3037647 3037640 3037484
3037670 3037727 3037392
3037788 3037847 3037446
3037853 3037870 3037412
3037972 3038139 3037515
3038029 3038276 3037715
3038157 3038427 3037599
3038087 3038287 3037668
3038066 3038258 3037676
3037681 3037726 3037524
3037560 3037462 3037325
3037490 3037358 3037315
3037494 3037431 3037416
3037503 3037402 3037333
3037501 3037354 3037268
3037496 3037396 3037362
3037487 3037405 3037325
3037442 3037380 3037269
3037454 3037399 3037327
3037465 3037405 3037264
3037476 3037358 3037275
3037500 3037396 3037227
3037499 3037396 3037413
3037462 3037403 3037235
3037468 3037378 3037356
3037454 3037431 3037291
3037477 3037393 3037432
3037484 3037344 3037312
3037450 3037378 3037257
3037493 3037345 3037432
3037497 3037402 3037268
3037472 3037407 3037312
3037501 3037427 3037308
3037477 3037359 3037286
3037463 3037394 3037303
3037533 3037384 3037489
3037441 3037356 3037298
3037500 3037392 3037340
3037532 3037355 3037293
3037447 3037393 3037283
3037452 3037348 3037425
3037464 3037353 3037339
3037501 3037346 3037392
3037408 3037349 3037391
3037500 3037370 3037427
3037587 3037552 3037385
3037708 3037819 3037753
3037839 3037946 3037587
3037878 3037946 3037597
3037704 3037741 3037480
3037591 3037495 3037381
3037454 3037374 3037329
3037445 3037353 3037414
3037499 3037394 3037248
3037500 3037404 3037430
3037526 3037389 3037309
3037509 3037396 3037248
3037141 3036413 3037393
3038726 3038943 3037807
3040579 3041778 3038330
3038846 3039024 3036626
3037111 3036158 3034677
3037450 3037381 3037351
3037500 3037406 3037130
3037451 3037392 3037449
3037531 3037392 3037367
3037503 3037427 3037189
3037524 3037379 3037359
3037522 3037488 3037261
3037588 3037515 3037383
3037619 3037583 3037466
3037691 3037632 3037358
3037751 3037700 3037365
3037787 3037806 3037543
3037887 3037939 3037486
3037976 3038148 3037699
3038187 3038401 3037695
3038148 3038356 3037671
3038106 3038289 3037567
3037803 3037908 3037490
3037548 3037511 3037323
3037479 3037395 3037294
3037473 3037368 3037296
3037462 3037429 3037285
3037446 3037390 3037471
3037443 3037399 3037282
3037520 3037377 3037371
3037472 3037376 3037285
3037466 3037425 3037368
3037449 3037396 3037391
3037450 3037403 3037223
3037456 3037392 3037402
3037472 3037402 3037270
3037477 3037393 3037331
3037479 3037403 3037381
3037483 3037345 3037228
3037474 3037407 3037284
3037471 3037393 3037351
3037525 3037399 3037401
3037495 3037355 3037305
3037494 3037404 3037381
3037469 3037403 3037172
3037530 3037351 3037355
3037530 3037358 3037239
3037532 3037355 3037285
3037525 3037404 3037404
3037503 3037406 3037187
3037454 3037395 3037353
3037489 3037370 3037264
3037479 3037393 3037429
3037485 3037405 3037358
3037472 3037347 3037229
3037452 3037382 3037382
3037495 3037398 3037333
3037503 3037350 3037301
3037432 3037414 3037408
3037680 3037683 3037536
3037798 3037872 3037444
3037793 3037940 3037720
3037820 3037836 3037571
3037611 3037687 3037494
3037481 3037394 3037423
3037525 3037348 3037238
3037442 3037396 3037360
3037455 3037403 3037283
3037509 3037346 3037390
3037528 3037380 3037410
3037426 3037242 3037322
3037306 3036638 3037496
3039162 3039550 3038022
3040361 3041459 3038164
3038483 3038321 3036167
3037179 3036420 3035380
3037507 3037381 3037388
3037453 3037394 3037341
3037530 3037396 3037394
3037518 3037390 3037283
3037514 3037388 3037298
3037504 3037424 3037300
3037515 3037478 3037413
3037578 3037513 3037392
3037582 3037569 3037373
3037666 3037695 3037565
3037678 3037756 3037443
3037822 3037884 3037539
3037886 3037969 3037484
3038100 3038229 3037578
3038192 3038369 3037720
3038147 3038318 3037608
3038109 3038291 3037663
3037869 3037963 3037523
3037602 3037518 3037384
3037455 3037401 3037373
3037449 3037353 3037427
3037500 3037407 3037248
3037497 3037352 3037395
3037492 3037355 3037301
3037499 3037377 3037377
3037498 3037347 3037272
3037557 3037427 3037362
3037412 3037377 3037369
3037450 3037389 3037280
3037500 3037426 3037321
3037486 3037348 3037379
3037450 3037389 3037258
3037498 3037406 3037246
3037527 3037399 3037449
3037482 3037405 3037329
3037465 3037401 3037254
3037492 3037396 3037393
3037497 3037345 3037140
3037490 3037405 3037314
3037499 3037399 3037316
3037469 3037397 3037402
3037495 3037361 3037345
3037490 3037356 3037216
3037479 3037345 3037424
3037478 3037382 3037216
3037498 3037387 3037340
3037495 3037392 3037378
3037496 3037383 3037326
3037501 3037379 3037325
3037481 3037357 3037466
3037478 3037401 3037315
3037494 3037382 3037411
3037409 3037377 3037350
3037490 3037389 3037397
3037614 3037677 3037540
3037796 3037835 3037545
3037853 3037941 3037617
3037794 3037827 3037607
3037615 3037662 3037526
3037529 3037405 3037236
3037455 3037407 3037501
3037470 3037406 3037312
3037469 3037386 3037499
3037498 3037393 3037426
3037492 3037352 3037199
3037359 3037087 3037390
3037685 3037250 3037485
3039524 3040201 3038117
3039916 3040792 3037603
3037964 3037607 3035649
3037285 3036772 3036065
3037490 3037431 3037380
3037486 3037382 3037249
3037509 3037404 3037406
3037527 3037399 3037252
3037498 3037388 3037386
3037558 3037433 3037419
3037593 3037457 3037278
3037549 3037505 3037560
3037648 3037578 3037383
3037691 3037679 3037466
3037776 3037777 3037452
3037855 3037858 3037447
3037925 3038009 3037474
3038072 3038238 3037675
3038200 3038416 3037593
3038149 3038272 3037670
3038017 3038269 3037689
3037785 3037880 3037387
3037546 3037528 3037453
3037556 3037357 3037272
3037453 3037383 3037359
3037456 3037347 3037354
3037483 3037349 3037285
3037533 3037431 3037433
3037521 3037393 3037316
3037499 3037377 3037434
3037526 3037378 3037316
3037552 3037380 3037139
3037505 3037393 3037315
3037525 3037401 3037306
3037484 3037369 3037251
3037530 3037353 3037314
3037471 3037407 3037397
3037480 3037354 3037363
3037496 3037382 3037303
3037441 3037381 3037278
3037445 3037395 3037362
3037449 3037394 3037281
3037448 3037406 3037380
3037473 3037437 3037375
3037477 3037347 3037328
3037497 3037405 3037342
3037476 3037399 3037386
3037441 3037378 3037416
3037527 3037384 3037290
3037468 3037401 3037405
3037486 3037393 3037354
3037491 3037404 3037371
3037487 3037383 3037359
3037481 3037405 3037284
3037522 3037369 3037344
3037465 3037357 3037291
3037450 3037347 3037376
3037558 3037446 3037495
3037711 3037776 3037417
3037854 3037937 3037709
3037857 3037951 3037629
3037745 3037791 3037533
3037586 3037471 3037406
3037516 3037401 3037323
3037481 3037379 3037167
3037493 3037407 3037319
3037442 3037403 3037260
3037498 3037395 3037301
3037525 3037403 3037395
3037195 3036672 3037255
3038256 3038177 3037659
3040133 3041112 3038196
3039323 3039758 3036965
3037404 3036637 3035014
3037436 3037198 3036895
3037523 3037404 3037390
3037479 3037376 3037278
3037475 3037381 3037322
3037473 3037381 3037295
3037482 3037401 3037186
3037530 3037447 3037392
3037545 3037498 3037454
3037623 3037555 3037364
3037642 3037659 3037474
3037642 3037701 3037456
3037817 3037773 3037433
3037806 3037941 3037524
3037946 3038050 3037527
3038140 3038289 3037586
3038204 3038430 3037695
3038124 3038276 3037516
3038062 3038245 3037678
3037699 3037745 3037434
3037544 3037451 3037406
3037498 3037354 3037378
3037452 3037391 3037254
3037517 3037399 3037358
3037523 3037405 3037305
3037488 3037358 3037400
3037498 3037359 3037278
3037485 3037358 3037355
3037488 3037402 3037257
3037502 3037402 3037527
3037499 3037402 3037306
3037443 3037355 3037362
3037455 3037388 3037351
3037490 3037355 3037301
3037479 3037381 3037319
3037486 3037399 3037293
3037472 3037356 3037443
3037441 3037379 3037319
3037476 3037387 3037401
3037529 3037400 3037433
3037503 3037420 3037355
3037464 3037415 3037294
3037493 3037391 3037346
3037468 3037405 3037313
3037477 3037354 3037284
3037479 3037357 3037223
3037522 3037400 3037397
3037496 3037397 3037395
3037490 3037377 3037297
3037495 3037406 3037401
3037521 3037344 3037362
3037477 3037430 3037342
3037440 3037379 3037340
3037503 3037345 3037392
3037490 3037382 3037369
3037554 3037441 3037376
3037747 3037788 3037594
3037879 3037948 3037724
3037848 3037921 3037613
3037747 3037811 3037652
3037553 3037516 3037409
3037464 3037387 3037400
3037513 3037400 3037254
3037492 3037355 3037381
3037482 3037395 3037354
3037478 3037344 3037256
3037495 3037392 3037384
3037189 3036705 3037261
3038257 3038096 3037761
3040094 3040912 3037752
3037938 3037473 3035664
3037323 3036828 3036208
3037533 3037379 3037436
3037467 3037381 3037317
3037487 3037378 3037320
3037523 3037399 3037319
3037477 3037425 3037351
3037562 3037467 3037290
3037510 3037448 3037397
3037589 3037564 3037385
3037572 3037616 3037465
3037640 3037683 3037381
3037757 3037760 3037434
3037802 3037887 3037410
3037893 3037957 3037531
3038070 3038209 3037594
3038149 3038414 3037721
3038170 3038314 3037628
3038062 3038217 3037687
3037779 3037824 3037600
3037598 3037535 3037420
3037480 3037353 3037322
3037440 3037388 3037457
3037478 3037394 3037323
3037454 3037401 3037498
3037524 3037426 3037374
3037509 3037378 3037353
3037447 3037426 3037384
3037446 3037405 3037430
3037499 3037395 3037424
3037485 3037397 3037265
3037446 3037345 3037377
3037534 3037355 3037261
3037487 3037428 3037344
3037518 3037426 3037280
3037456 3037378 3037316
3037481 3037377 3037384
3037453 3037382 3037352
3037473 3037383 3037417
3037499 3037435 3037392
3037451 3037403 3037352
3037496 3037404 3037101
3037500 3037356 3037345
3037503 3037385 3037332
3037455 3037390 3037264
3037494 3037387 3037299
3037527 3037357 3037299
3037426 3037376 3037454
3037477 3037400 3037257
3037452 3037407 3037283
3037476 3037378 3037370
3037484 3037390 3037322
3037508 3037393 3037258
3037442 3037383 3037333
3037509 3037349 3037283
3037484 3037386 3037438
3037708 3037713 3037526
3037801 3037857 3037664
3037880 3037889 3037562
3037738 3037823 3037571
3037603 3037564 3037552
3037453 3037376 3037368
3037472 3037397 3037421
3037527 3037402 3037264
3037483 3037357 3037432
3037480 3037392 3037341
3037449 3037405 3037294
3037171 3036433 3037406
3038604 3038733 3037735
3040526 3041684 3038474
3038994 3039143 3036514
3037077 3036111 3034712
3037446 3037377 3037300
3037525 3037401 3037327
3037496 3037382 3037407
3037449 3037404 3037362
3037483 3037391 3037460
3037521 3037464 3037249
3037491 3037500 3037438
3037617 3037523 3037240
3037621 3037558 3037357
3037633 3037688 3037358
3037706 3037749 3037502
3037821 3037841 3037390
3037827 3037970 3037478
3037977 3038132 3037649
3038172 3038311 3037537
3038183 3038389 3037649
3038088 3038282 3037557
3037989 3038161 3037593
3037681 3037619 3037417
3037502 3037438 3037286
3037456 3037383 3037310
3037473 3037355 3037397
3037484 3037345 3037345
3037473 3037437 3037323
3037472 3037353 3037352
3037492 3037397 3037369
3037493 3037392 3037290
3037510 3037393 3037395
3037456 3037373 3037164
3037524 3037345 3037414
3037453 3037384 3037300
3037522 3037402 3037319
3037525 3037401 3037353
3037500 3037389 3037231
3037494 3037380 3037446
3037471 3037383 3037317
3037491 3037377 3037358
3037488 3037382 3037436
3037492 3037400 3037321
3037446 3037422 3037479
3037483 3037373 3037315
3037448 3037397 3037380
3037418 3037428 3037393
3037469 3037405 3037307
3037449 3037401 3037333
3037485 3037395 3037333
3037492 3037381 3037377
3037502 3037403 3037328
3037478 3037394 3037370
3037532 3037394 3037396
3037496 3037397 3037404
3037534 3037348 3037296
3037532 3037396 3037378
3037503 3037402 3037295
3037592 3037563 3037496
3037780 3037774 3037630
3037874 3037897 3037613
3037853 3037950 3037632
3037737 3037745 3037563
3037559 3037422 3037466
3037434 3037424 3037310
3037520 3037400 3037463
3037496 3037351 3037493
3037485 3037354 3037335
3037458 3037352 3037444
3037479 3037355 3037286
3037206 3036574 3037372
3038486 3038445 3037832
3040301 3041346 3038292
3039222 3039517 3036905
3037109 3036128 3034852
3037494 3037401 3037261
3037501 3037403 3037359
3037474 3037392 3037319
3037503 3037379 3037375
3037480 3037394 3037468
3037518 3037386 3037374
3037483 3037442 3037389
3037564 3037481 3037331
3037649 3037595 3037398
3037666 3037657 3037375
3037679 3037707 3037375
3037805 3037842 3037548
3037875 3037889 3037489
3037956 3038086 3037568
3038134 3038355 3037583
3038195 3038421 3037655
3038080 3038314 3037782
3037997 3038163 3037491
3037662 3037638 3037532
3037483 3037429 3037330
3037450 3037382 3037309
3037496 3037345 3037373
3037498 3037400 3037398
3037446 3037344 3037388
3037501 3037355 3037320
3037498 3037390 3037299
3037527 3037400 3037352
3037498 3037406 3037301
3037444 3037362 3037427
3037445 3037382 3037401
3037503 3037349 3037307
3037474 3037377 3037315
3037445 3037352 3037256
3037498 3037437 3037370
3037474 3037359 3037315
3037450 3037436 3037377
3037451 3037397 3037301
3037446 3037402 3037413
3037454 3037380 3037341
3037485 3037355 3037387
3037452 3037384 3037290
3037492 3037407 3037408
3037480 3037376 3037361
3037447 3037353 3037350
3037525 3037380 3037289
3037525 3037358 3037343
3037448 3037379 3037298
3037483 3037386 3037304
3037499 3037353 3037397
3037503 3037381 3037277
3037472 3037400 3037291
3037503 3037382 3037363
3037508 3037401 3037300
3037503 3037406 3037437
3037544 3037479 3037305
3037757 3037780 3037566
3037836 3037946 3037712
3037768 3037892 3037514
3037810 3037809 3037609
3037539 3037517 3037454
3037524 3037383 3037268
3037455 3037346 3037378
3037488 3037397 3037330
3037485 3037404 3037249
3037525 3037382 3037445
3037494 3037379 3037267
3037083 3036498 3037434
3038509 3038596 3037757
3040270 3041299 3038284
3039224 3039556 3036961
3037310 3036447 3034755
3037443 3037295 3037238
3037533 3037402 3037398
3037477 3037376 3037304
3037491 3037357 3037515
3037489 3037394 3037291
3037527 3037438 3037494
3037537 3037442 3037316
3037546 3037474 3037359
3037615 3037550 3037429
3037660 3037576 3037315
3037672 3037750 3037323
3037766 3037855 3037525
3037887 3037896 3037477
3037967 3038141 3037542
3038158 3038323 3037693
3038207 3038396 3037574
3038126 3038293 3037721
3038067 3038156 3037549
3037651 3037551 3037347
3037524 3037398 3037369
3037495 3037398 3037290
3037476 3037415 3037287
3037478 3037404 3037330
3037492 3037406 3037425
3037524 3037397 3037234
3037448 3037406 3037454
3037498 3037401 3037192
3037486 3037394 3037364
3037477 3037382 3037274
3037503 3037407 3037326
3037500 3037380 3037251
3037472 3037344 3037392
3037486 3037377 3037459
3037479 3037349 3037190
3037509 3037403 3037259
3037493 3037399 3037404
3037490 3037399 3037284
3037467 3037387 3037374
3037484 3037407 3037329
3037502 3037393 3037335
3037466 3037357 3037250
3037445 3037401 3037414
3037461 3037407 3037342
3037486 3037394 3037367
3037490 3037383 3037330
3037542 3037397 3037276
3037474 3037358 3037409
3037421 3037425 3037226
3037529 3037407 3037389
3037454 3037403 3037277
3037475 3037382 3037324
3037479 3037398 3037347
3037483 3037372 3037244
3037502 3037390 3037460
3037654 3037547 3037396
3037766 3037837 3037635
3037883 3037951 3037590
3037855 3037859 3037623
3037725 3037714 3037524
3037464 3037424 3037369
3037502 3037395 3037328
3037498 3037384 3037248
3037522 3037383 3037385
3037478 3037393 3037188
3037451 3037405 3037289
3037498 3037404 3037334
3037069 3036389 3037256
3038837 3039033 3037891
3040576 3041800 3038363
3038802 3038819 3036446
3037110 3036194 3034923
3037527 3037358 3037350
3037478 3037374 3037366
3037503 3037360 3037427
3037472 3037352 3037431
3037478 3037358 3037385
3037534 3037434 3037331
3037553 3037488 3037291
3037615 3037511 3037489
3037605 3037582 3037372
3037650 3037687 3037517
3037664 3037751 3037388
3037853 3037838 3037492
3037800 3037897 3037546
3038013 3038206 3037532
3038148 3038348 3037666
3038206 3038340 3037584
3038162 3038272 3037510
3037962 3038018 3037643
3037580 3037577 3037355
3037494 3037393 3037424
3037442 3037347 3037290
3037488 3037390 3037224
3037465 3037392 3037421
3037514 3037352 3037290
3037503 3037381 3037249
3037459 3037400 3037356
3037485 3037353 3037370
3037432 3037355 3037406
3037528 3037348 3037284
3037440 3037355 3037337
3037493 3037378 3037385
3037472 3037358 3037204
3037500 3037373 3037356
3037523 3037404 3037285
3037501 3037397 3037309
3037519 3037358 3037393
3037472 3037376 3037236
3037491 3037354 3037346
3037511 3037403 3037293
3037475 3037430 3037354
3037486 3037396 3037393
3037494 3037393 3037361
3037420 3037437 3037258
3037488 3037403 3037399
3037454 3037378 3037325
3037482 3037358 3037373
3037523 3037392 3037423
3037499 3037378 3037321
3037451 3037358 3037436
3037472 3037379 3037284
3037482 3037390 3037317
3037500 3037344 3037384
3037509 3037349 3037286
3037481 3037383 3037464
3037603 3037609 3037414
3037791 3037802 3037614
3037850 3037950 3037737
3037828 3037864 3037580
3037748 3037696 3037593
3037525 3037385 3037360
3037471 3037401 3037311
3037532 3037394 3037337
3037487 3037400 3037314
3037502 3037353 3037310
3037485 3037353 3037418
3037463 3037270 3037261
3037348 3036738 3037541
3039260 3039686 3037947
3040510 3041547 3037972
3038479 3038454 3036301
3037126 3036421 3035420
3037441 3037354 3037338
3037499 3037394 3037391
3037525 3037374 3037253
3037478 3037390 3037414
3037522 3037397 3037248
3037488 3037419 3037448
3037561 3037476 3037351
3037566 3037555 3037346
3037615 3037585 3037516
3037674 3037639 3037385
3037733 3037759 3037508
3037764 3037829 3037436
3037863 3037964 3037452
3038055 3038203 3037484
3038231 3038398 3037818
3038125 3038361 3037586
3038087 3038300 3037685
3037886 3038013 3037458
3037631 3037538 3037535
3037535 3037381 3037424
3037443 3037401 3037330
3037535 3037398 3037445
3037510 3037406 3037261
3037450 3037428 3037385
3037481 3037394 3037316
3037496 3037397 3037293
3037446 3037356 3037354
3037566 3037354 3037286
3037445 3037403 3037442
3037479 3037350 3037276
3037455 3037344 3037293
3037480 3037394 3037388
3037500 3037344 3037461
3037473 3037395 3037256
3037486 3037356 3037398
3037467 3037376 3037314
3037457 3037394 3037272
3037525 3037400 3037438
3037481 3037353 3037364
3037449 3037394 3037419
3037490 3037359 3037295
3037444 3037390 3037323
3037470 3037404 3037358
3037480 3037402 3035142
3037495 3037376 3037348
3037452 3037405 3037320
3037443 3037392 3037344
3037446 3037377 3037340
3037526 3037400 3037390
3037489 3037395 3037337
3037468 3037379 3037256
3037528 3037396 3037315
3037520 3037323 3037272
3037505 3037438 3037393
3037707 3037754 3037390
3037810 3037919 3037665
3037835 3037944 3037623
3037809 3037823 3037512
3037537 3037546 3037501
3037487 3037354 3037350
3037473 3037383 3037354
3037503 3037402 3037224
3037474 3037396 3037431
3037495 3037401 3037317
3037472 3037345 3037383
3037292 3037008 3037350
3037769 3037435 3037521
3039633 3040350 3038091
3039811 3040632 3037615
3037871 3037460 3035535
3037297 3036836 3036318
3037477 3037391 3037288
3037499 3037398 3037413
3037482 3037356 3037382
3037492 3037382 3037470
3037483 3037410 3037341
3037492 3037444 3037500
3037506 3037448 3037408
3037590 3037517 3037405
3037625 3037656 3037552
3037645 3037680 3037363
3037778 3037766 3037533
3037842 3037917 3037496
3037969 3038029 3037546
3038134 3038255 3037663
3038184 3038459 3037823
3038175 3038322 3037594
3038062 3038297 3037610
3037817 3037818 3037451
3037592 3037474 3037257
3037444 3037396 3037385
3037502 3037398 3037375
3037449 3037383 3037347
3037442 3037380 3037284
3037481 3037354 3037396
3037492 3037345 3037397
3037524 3037345 3037263
3037500 3037404 3037410
3037495 3037358 3037362
3037509 3037395 3037435
3037496 3037406 3037314
3037525 3037399 3037360
3037516 3037397 3037358
3037488 3037346 3037296
3037522 3037425 3037392
3037440 3037386 3037310
3037521 3037354 3037397
3037474 3037403 3037334
3037500 3037383 3037461
3037456 3037352 3037406
3037526 3037390 3037311
3037500 3037395 3037400
3037444 3037377 3037320
3037524 3037376 3037366
3037532 3037390 3037236
3037523 3037370 3037322
3037498 3037406 3037336
3037482 3037398 3037313
3037527 3037357 3037320
3037483 3037383 3037336
3037522 3037401 3037335
3037473 3037345 3037246
3037506 3037403 3037357
3037494 3037392 3037301
3037475 3037432 3037348
3037644 3037783 3037599
3037815 3037899 3037536
3037836 3037942 3037688
3037811 3037796 3037443
3037571 3037560 3037494
3037535 3037382 3037312
3037489 3037353 3037334
3037446 3037389 3037414
3037527 3037355 3037266
3037520 3037398 3037401
3037488 3037390 3037356
3037275 3036708 3037382
3038076 3037799 3037554
3039966 3040790 3038254
3039558 3040180 3037302
3037617 3036987 3035260
3037383 3037085 3036669
3037454 3037406 3037433
3037486 3037429 3037314
3037479 3037377 3037332
3037522 3037427 3037436
3037522 3037430 3037306
3037475 3037466 3037438
3037538 3037485 3037377
3037539 3037554 3037376
3037612 3037661 3037557
3037673 3037675 3037431
3037739 3037811 3037597
3037792 3037903 3037384
3037947 3038023 3037634
3038118 3038255 3037515
3038214 3038410 3037636
3038080 3038325 3037592
3038048 3038219 3037577
3037733 3037791 3037412
3037516 3037445 3037337
3037488 3037401 3037362
3037506 3037382 3037246
3037490 3037424 3037430
3037500 3037347 3037231
3037526 3037351 3037382
3037500 3037381 3037332
3037473 3037403 3037276
3037500 3037378 3037428
3037474 3037405 3037217
3037526 3037429 3037335
3037529 3037393 3037360
3037459 3037378 3037299
3037495 3037394 3037457
3037445 3037393 3037283
3037495 3037344 3037294
3037449 3037402 3037287
3037449 3037382 3037463
3037496 3037358 3037258
3037531 3037405 3037427
3037441 3037345 3037216
3037526 3037345 3037455
3037450 3037405 3037398
3037533 3037399 3037409
3037495 3037379 3037401
3037495 3037379 3037364
3037472 3037394 3037498
3037498 3037404 3037356
3037486 3037348 3037417
3037477 3037345 3037360
3037442 3037384 3037382
3037509 3037348 3037444
3037499 3037396 3037269
3037492 3037352 3037381
3037477 3037400 3037254
3037559 3037468 3037316
3037753 3037784 3037533
3037828 3037897 3037708
3037826 3037928 3037621
3037711 3037807 3037579
3037550 3037520 3037343
3037444 3037402 3037290
3037516 3037397 3037389
3037498 3037428 3037269
3037532 3037407 3037364
3037496 3037379 3037266
3037485 3037424 3037438
3037208 3036676 3037393
3038273 3038256 3037624
3040199 3041215 3038381
3039272 3039729 3037023
3037504 3036546 3035071
3037392 3037171 3036769
3037488 3037387 3037175
3037476 3037394 3037199
3037481 3037356 3037284
3037529 3037432 3037353
3037527 3037458 3037295
3037550 3037477 3037424
3037586 3037554 3037380
3037659 3037604 3037487
3037710 3037685 3037378
3037762 3037819 3037468
3037834 3037886 3037468
3037957 3038066 3037479
3038110 3038272 3037615
3038181 3038426 3037579
3038122 3038293 3037670
3038089 3038232 3037576
3037696 3037753 3037516
3037519 3037491 3037357
3037448 3037401 3037287
3037445 3037353 3037336
3037532 3037393 3037293
3037486 3037392 3037355
3037526 3037358 3037309
3037486 3037428 3037288
3037458 3037400 3037393
3037475 3037381 3037355
3037445 3037378 3037350
3037441 3037351 3037336
3037479 3037392 3037335
3037501 3037405 3037400
3037525 3037356 3037192
3037473 3037398 3037349
3037451 3037395 3037380
3037504 3037384 3037412
3037480 3037366 3037429
3037493 3037405 3037266
3037464 3037351 3037405
3037468 3037395 3037310
3037499 3037346 3037355
3037527 3037384 3037297
3037499 3037427 3037396
3037445 3037392 3037228
3037493 3037380 3037214
3037478 3037380 3037290
3037495 3037382 3037428
3037472 3037396 3037403
3037489 3037344 3037286
3037490 3037377 3037389
3037446 3037401 3037265
3037441 3037398 3037417
3037453 3037381 3037362
3037481 3037401 3037221
3037474 3037438 3037427
3037680 3037703 3037417
3037853 3037905 3037618
3037849 3037939 3037634
3037821 3037843 3037500
3037657 3037582 3037468
3037481 3037361 3037270
3037486 3037368 3037316
3037504 3037344 3037199
3037486 3037346 3037416
3037485 3037364 3037357
3037444 3037348 3037332
3037331 3036971 3037287
3037937 3037646 3037683
3039781 3040601 3038173
3039702 3040322 3037460
3037732 3037147 3035451
3037339 3036980 3036515
3037500 3037403 3037455
3037462 3037376 3037228
3037482 3037345 3037339
3037492 3037400 3037325
3037486 3037429 3037288
3037517 3037424 3037238
3037537 3037495 3037287
3037594 3037562 3037404
3037621 3037624 3037310
3037721 3037685 3037418
3037787 3037774 3037438
3037803 3037904 3037491
3037940 3038039 3037496
3038137 3038265 3037453
3038183 3038414 3037701
3038088 3038283 3037614
3038049 3038210 3037597
3037677 3037698 3037559
3037517 3037416 3037248
3037500 3037406 3037379
3037510 3037407 3037335
3037440 3037393 3037256
3037452 3037348 3037438
3037472 3037399 3037335
3037455 3037402 3037372
3037467 3037378 3037456
3037475 3037354 3037328
3037488 3037344 3037479
3037469 3037353 3037332
3037449 3037368 3037379
3037449 3037382 3037386
3037451 3037402 3037280
3037418 3037407 3037452
3037476 3037355 3037179
3037474 3037406 3037379
3037451 3037402 3037388
3037503 3037349 3037324
3037491 3037354 3037380
3037492 3037404 3037386
3037444 3037381 3037430
3037482 3037358 3037284
3037451 3037357 3037390
3037519 3037406 3037288
3037465 3037380 3037223
3037480 3037401 3037338
3037473 3037396 3037266
3037441 3037346 3037300
3037474 3037381 3037217
3037422 3037356 3037295
3037450 3037403 3037344
3037482 3037398 3037265
3037474 3037344 3037392
3037449 3037431 3037130
3037444 3037388 3037410
3037712 3037725 3037411
3037849 3037882 3037637
3037765 3037891 3037514
3037741 3037805 3037555
3037536 3037597 3037458
3037523 3037352 3037333
3037500 3037359 3037395
3037495 3037358 3037329
3037449 3037400 3037368
3037481 3037383 3037240
3037498 3037355 3037377
3037281 3036875 3037220
3037892 3037569 3037651
3039717 3040538 3038094
3039738 3040357 3037501
3037767 3037196 3035579
3037333 3036906 3036287
3037504 3037394 3037399
3037499 3037394 3037201
3037486 3037355 3037254
3037535 3037382 3037378
3037474 3037426 3037298
3037539 3037459 3037314
3037569 3037489 3037383
3037605 3037544 3037427
3037612 3037581 3037373
3037681 3037679 3037513
3037758 3037772 3037397
3037851 3037905 3037568
3037925 3038045 3037480
3038076 3038252 3037682
3038204 3038414 3037779
3038174 3038302 3037465
3038075 3038261 3037620
3037775 3037849 3037441
3037551 3037482 3037326
3037447 3037351 3037431
3037470 3037433 3037304
3037495 3037405 3037357
3037450 3037398 3037248
3037465 3037402 3037401
3037457 3037379 3037330
3037478 3037398 3037331
3037485 3037383 3037401
3037451 3037401 3037399
3037473 3037401 3037364
3037498 3037344 3037401
3037442 3037397 3037358
3037502 3037405 3037332
3037475 3037352 3037288
3037467 3037344 3037528
3037495 3037353 3037309
3037447 3037396 3037334
3037484 3037355 3037339
3037527 3037403 3037497
3037443 3037376 3037344
3037483 3037401 3037308
3037488 3037394 3037305
3037479 3037368 3037387
3037542 3037407 3037272
3037533 3037378 3037397
3037444 3037430 3037288
3037441 3037390 3037423
3037477 3037390 3037254
3037471 3037376 3037356
3037528 3037381 3037342
3037447 3037389 3037234
3037463 3037345 3037275
3037527 3037396 3037346
3037511 3037393 3037360
3037545 3037524 3037479
3037756 3037773 3037520
3037873 3037923 3037611
3037876 3037916 3037555
3037744 3037788 3037490
3037519 3037440 3037324
3037450 3037353 3037391
3037452 3037406 3037367
3037509 3037358 3037265
3037423 3037384 3037424
3037485 3037402 3037164
3037491 3037405 3037424
3037088 3036547 3037308
3038464 3038513 3037794
3040321 3041417 3038255
3039122 3039452 3036823
3037153 3036234 3034900
3037496 3037288 3037181
3037511 3037392 3037257
3037488 3037404 3037275
3037529 3037363 3037283
3037450 3037378 3037424
3037526 3037426 3037280
3037521 3037456 3037358
3037583 3037444 3037225
3037583 3037542 3037433
3037682 3037634 3037379
3037676 3037673 3037518
3037778 3037842 3037411
3037858 3037900 3037432
3037923 3038111 3037581
3038130 3038332 3037625
3038147 3038419 3037779
3038119 3038310 3037687
3037965 3038148 3037609
3037635 3037643 3037349
3037526 3037421 3037474
3037501 3037404 3037424
3037532 3037373 3037334
3037483 3037355 3037232
3037531 3037398 3037326
3037445 3037382 3037321
3037464 3037406 3037405
3037502 3037399 3037404
3037503 3037399 3037217
3037478 3037347 3037323
3037450 3037378 3037257
3037521 3037401 3037186
3037455 3037377 3037459
3037502 3037356 3037209
3037496 3037361 3037259
3037486 3037353 3037332
3037502 3037407 3037293
3037534 3037345 3037274
3037531 3037385 3037265
3037489 3037352 3037332
3037503 3037345 3037471
3037502 3037379 3037285
3037503 3037369 3037392
3037526 3037349 3037334
3037497 3037398 3037242
3037444 3037395 3037470
3037474 3037405 3037303
3037496 3037355 3037368
3037492 3037356 3037406
3037535 3037346 3037239
3037489 3037371 3037447
3037444 3037427 3037196
3037490 3037355 3037411
3037409 3037379 3037414
3037442 3037358 3037311
3037590 3037483 3037422
3037738 3037765 3037514
3037836 3037936 3037601
3037839 3037889 3037529
3037750 3037708 3037477
3037557 3037471 3037429
3037444 3037357 3037394
3037445 3037370 3037208
3037492 3037401 3037430
3037503 3037394 3037281
3037460 3037381 3037343
3037516 3037366 3037336
3037068 3036497 3037229
3038608 3038687 3037834
3040456 3041577 3038258
3039059 3039224 3036821
3037112 3036181 3034767
3037501 3037354 3037460
3037530 3037344 3037363
3037473 3037353 3037318
3037490 3037389 3037385
3037445 3037428 3037335
3037554 3037426 3037355
3037517 3037469 3037319
3037563 3037476 3037539
3037662 3037581 3037442
3037641 3037694 3037486
3037715 3037745 3037457
3037808 3037834 3037431
3037805 3037922 3037534
3038042 3038172 3037671
3038173 3038307 3037485
3038158 3038346 3037516
3038139 3038284 3037642
3038000 3038167 3037536
3037637 3037615 3037389
3037534 3037437 3037258
3037476 3037326 3037362
3037448 3037398 3037249
3037441 3037406 3037275
3037526 3037404 3037392
3037500 3037398 3037186
3037525 3037407 3037328
3037451 3037403 3037213
3037493 3037354 3037333
3037441 3037398 3037285
3037525 3037399 3037405
3037503 3037385 3037361
3037442 3037394 3037501
3037452 3037355 3037318
3037470 3037405 3037330
3037453 3037400 3037415
3037478 3037353 3037258
3037487 3037371 3037461
3037484 3037405 3037222
3037476 3037397 3037329
3037503 3037362 3037402
3037491 3037391 3037328
3037458 3037404 3037487
3037468 3037349 3037200
3037507 3037385 3037352
3037476 3037346 3037230
3037448 3037404 3037438
3037491 3037348 3037350
3037466 3037405 3037359
3037476 3037374 3037438
3037483 3037346 3037318
3037440 3037406 3037294
3037452 3037406 3037357
3037463 3037395 3037384
3037489 3037357 3037221
3037618 3037593 3037485
3037775 3037802 3037528
3037865 3037891 3037724
3037844 3037909 3037628
3037633 3037607 3037449
3037521 3037394 3037207
3037468 3037397 3037297
3037484 3037377 3037407
3037479 3037402 3037328
3037532 3037430 3037368
3037494 3037393 3037200
3037401 3037188 3037334
3037446 3036925 3037480
3039357 3039814 3038006
3040217 3041144 3038011
3038086 3037752 3035530
3037270 3036691 3036043
3037444 3037412 3037249
3037493 3037391 3037405
3037479 3037407 3037319
3037520 3037379 3037250
3037478 3037432 3037402
3037485 3037417 3037315
3037563 3037498 3037490
3037581 3037511 3037262
3037659 3037598 3037448
3037705 3037689 3037459
3037779 3037788 3037391
3037810 3037885 3037428
3037864 3037981 3037463
3037994 3038222 3037484
3038150 3038425 3037688
3038112 3038339 3037513
3038118 3038256 3037648
3037908 3037930 3037450
3037573 3037556 3037467
3037485 3037379 3037308
3037474 3037395 3037441
3037446 3037358 3037251
3037531 3037399 3037403
3037528 3037386 3037352
3037522 3037394 3037337
3037557 3037391 3037433
3037441 3037353 3037276
3037476 3037395 3037397
3037473 3037407 3037362
3037525 3037393 3037263
3037451 3037396 3037457
3037467 3037435 3037258
3037476 3037357 3037291
3037490 3037405 3037426
3037502 3037352 3037291
3037525 3037356 3037530
3037517 3037399 3037256
3037491 3037399 3037434
3037484 3037348 3037381
3037443 3037407 3037325
3037455 3037353 3037188
3037509 3037406 3037427
3037520 3037344 3037168
3037449 3037352 3037359
3037482 3037380 3037253
3037496 3037368 3037193
3037480 3037428 3037397
3037449 3037395 3037169
3037476 3037354 3037329
3037463 3037393 3037237
3037441 3037347 3037333
3037491 3037393 3037286
3037451 3037387 3037217
3037534 3037368 3037399
3037661 3037648 3037349
3037808 3037873 3037600
3037798 3037901 3037537
3037781 3037880 3037521
3037687 3037655 3037456
3037445 3037398 3037316
3037451 3037403 3037202
3037495 3037387 3037401
3037441 3037344 3037273
3037488 3037399 3037340
3037475 3037381 3037390
3037316 3037035 3037359
3037702 3037260 3037408
3039584 3040202 3038015
3039937 3040735 3037707
3038134 3037797 3035572
3037276 3036658 3035825
3037478 3037383 3037346
3037451 3037353 3037227
3037448 3037392 3037343
3037417 3037372 3037226
3037488 3037379 3037428
3037563 3037387 3037300
3037586 3037499 3037344
3037621 3037507 3037403
3037626 3037581 3037269
3037677 3037688 3037417
3037767 3037740 3037443
3037846 3037866 3037490
3037940 3038012 3037545
3038111 3038258 3037664
3038236 3038403 3037619
3038104 3038315 3037627
3038113 3038256 3037566
3037772 3037865 3037474
3037575 3037484 3037364
3037476 3037393 3037373
3037499 3037346 3037388
3037527 3037393 3037275
3037485 3037362 3037380
3037497 3037434 3037316
3037480 3037369 3037365
3037450 3037392 3037495
3037493 3037346 3037348
3037476 3037402 3037562
3037498 3037354 3037281
3037481 3037357 3037507
3037505 3037361 3037195
3037452 3037380 3037281
3037481 3037389 3037224
3037451 3037394 3037263
3037527 3037398 3037279
3037490 3037404 3037246
3037506 3037401 3037232
3037480 3037395 3037246
3037445 3037404 3037369
3037445 3037431 3037147
3037481 3037354 3037327
3037450 3037389 3037313
3037491 3037383 3037297
3037490 3037393 3037367
3037456 3037388 3037192
3037475 3037404 3037329
3037495 3037398 3037223
3037488 3037345 3037327
3037502 3037403 3037321
3037497 3037392 3037205
3037455 3037407 3037401
3037491 3037397 3037384
3037497 3037396 3037317
3037559 3037376 3037398
3037722 3037734 3037561
3037815 3037888 3037546
3037832 3037895 3037716
3037817 3037805 3037521
3037658 3037573 3037501
3037449 3037401 3037380
3037529 3037391 3037295
3037492 3037372 3037414
3037460 3037402 3037250
3037478 3037346 3037313
3037497 3037344 3037313
3037349 3037069 3037333
3037660 3037243 3037718
3039530 3040146 3038011
3039951 3040770 3037806
3038038 3037649 3035640
3037250 3036739 3036055
3037526 3037406 3037160
3037445 3037402 3037398
